Freq	dB	Phase
20.0000	59.2328	173.8787
20.1737	59.4101	173.5925
20.3488	59.5881	173.2945
20.5255	59.7668	172.8888
20.7037	59.9364	172.5585
20.8835	60.1162	172.2253
21.0648	60.2877	171.7882
21.2478	60.4593	171.4258
21.4322	60.6314	171.0631
21.6183	60.8040	170.6959
21.8061	60.9779	170.2342
21.9954	61.1431	169.8280
22.1864	61.3164	169.4384
22.3790	61.4838	168.9550
22.5733	61.6499	168.5300
22.7693	61.8174	168.0424
22.9670	61.9774	167.5964
23.1665	62.1435	167.1806
23.3676	62.3056	166.6853
23.5705	62.4658	166.2253
23.7752	62.6264	165.7915
23.9816	62.7882	165.3016
24.1899	62.9451	164.7717
24.3999	63.0994	164.2926
24.6118	63.2540	163.8442
24.8255	63.4091	163.3965
25.0410	63.5645	162.9506
25.2585	63.7209	162.4637
25.4778	63.8742	161.9271
25.6990	64.0239	161.4221
25.9221	64.1739	160.9595
26.1472	64.3249	160.4738
26.3743	64.4739	159.9355
26.6033	64.6184	159.4387
26.8343	64.7653	159.0104
27.0673	64.9150	158.4770
27.3023	65.0559	157.9617
27.5394	65.2019	157.4846
27.7785	65.3430	157.0190
28.0197	65.4903	156.5427
28.2630	65.6322	155.9581
28.5084	65.7689	155.4800
28.7559	65.9116	155.0100
29.0056	66.0496	154.4866
29.2575	66.1878	154.0118
29.5115	66.3264	153.5432
29.7677	66.4659	153.0261
30.0262	66.6010	152.4989
30.2869	66.7359	152.0203
30.5499	66.8713	151.5540
30.8152	67.0078	151.0416
31.0827	67.1398	150.5626
31.3526	67.2767	150.0585
31.6249	67.4065	149.5303
31.8995	67.5384	149.0916
32.1765	67.6727	148.6043
32.4558	67.8039	148.0869
32.7377	67.9347	147.5680
33.0219	68.0622	147.0800
33.3086	68.1924	146.6187
33.5979	68.3219	146.1247
33.8896	68.4507	145.6117
34.1839	68.5769	145.1215
34.4807	68.7046	144.6641
34.7801	68.8333	144.1527
35.0821	68.9577	143.6378
35.3867	69.0827	143.1779
35.6939	69.2092	142.6956
36.0039	69.3337	142.2076
36.3165	69.4590	141.7319
36.6318	69.5839	141.2259
36.9499	69.7065	140.7326
37.2707	69.8298	140.2605
37.5944	69.9532	139.7627
37.9208	70.0745	139.2976
38.2501	70.1993	138.7945
38.5822	70.3181	138.2966
38.9172	70.4410	137.8299
39.2551	70.5611	137.3310
39.5960	70.6819	136.8644
39.9398	70.8034	136.3666
40.2866	70.9224	135.8644
40.6364	71.0417	135.3951
40.9892	71.1620	134.8983
41.3451	71.2798	134.3949
41.7041	71.3980	133.9230
42.0662	71.5171	133.4275
42.4315	71.6339	132.9229
42.7999	71.7509	132.4478
43.1716	71.8689	131.9530
43.5464	71.9849	131.4468
43.9245	72.1008	130.9675
44.3059	72.2177	130.4727
44.6906	72.3329	129.9642
45.0787	72.4477	129.4795
45.4701	72.5636	128.9833
45.8649	72.6780	128.4737
46.2632	72.7922	127.9620
46.6649	72.9049	127.4670
47.0701	73.0193	126.9709
47.4788	73.1321	126.4537
47.8910	73.2444	125.9572
48.3069	73.3577	125.4401
48.7263	73.4685	124.9178
49.1494	73.5798	124.4175
49.5762	73.6911	123.8942
50.0066	73.8005	123.3842
50.4408	73.9115	122.8782
50.8788	74.0212	122.3545
51.3206	74.1309	121.8264
51.7662	74.2392	121.2984
52.2157	74.3476	120.7671
52.6691	74.4543	120.2381
53.1264	74.5616	119.7272
53.5877	74.6692	119.1931
54.0530	74.7750	118.6558
54.5223	74.8813	118.1169
54.9958	74.9858	117.5758
55.4733	75.0907	117.0341
55.9550	75.1938	116.4897
56.4408	75.2972	115.9644
56.9309	75.4010	115.4214
57.4252	75.5034	114.8528
57.9238	75.6037	114.3163
58.4268	75.7063	113.7689
58.9341	75.8057	113.2140
59.4458	75.9067	112.6596
59.9620	76.0048	112.0996
60.4826	76.1041	111.5579
61.0078	76.2027	110.9871
61.5375	76.2996	110.4178
62.0719	76.3962	109.8535
62.6108	76.4917	109.2872
63.1545	76.5869	108.7210
63.7029	76.6811	108.1512
64.2560	76.7746	107.5941
64.8139	76.8686	107.0220
65.3767	76.9606	106.4404
65.9444	77.0522	105.8684
66.5170	77.1429	105.2923
67.0945	77.2329	104.7187
67.6771	77.3224	104.1408
68.2647	77.4107	103.5660
68.8575	77.4991	102.9810
69.4554	77.5853	102.3966
70.0585	77.6716	101.8285
70.6668	77.7576	101.2457
71.2804	77.8422	100.6534
71.8993	77.9255	100.0740
72.5236	78.0088	99.5039
73.1533	78.0919	98.9094
73.7885	78.1725	98.3153
74.4292	78.2529	97.7450
75.0755	78.3333	97.1640
75.7274	78.4125	96.5707
76.3849	78.4903	95.9880
77.0481	78.5679	95.4069
77.7172	78.6444	94.8257
78.3920	78.7206	94.2455
79.0726	78.7958	93.6549
79.7592	78.8697	93.0728
80.4518	78.9434	92.4941
81.1503	79.0161	91.9064
81.8550	79.0875	91.3262
82.5657	79.1587	90.7503
83.2826	79.2290	90.1667
84.0058	79.2980	89.5893
84.7352	79.3668	89.0170
85.4709	79.4348	88.4382
86.2131	79.5016	87.8642
86.9617	79.5681	87.2960
87.7168	79.6338	86.7225
88.4784	79.6985	86.1524
89.2467	79.7627	85.5885
90.0216	79.8264	85.0206
90.8032	79.8890	84.4550
91.5917	79.9512	83.8918
92.3870	80.0125	83.3246
93.1892	80.0727	82.7673
93.9983	80.1328	82.2154
94.8145	80.1923	81.6550
95.6378	80.2506	81.0997
96.4682	80.3087	80.5488
97.3058	80.3659	79.9967
98.1507	80.4225	79.4511
99.0030	80.4787	78.9015
99.8626	80.5337	78.3556
100.7297	80.5885	77.8169
101.6044	80.6426	77.2806
102.4866	80.6966	76.7408
103.3765	80.7493	76.2025
104.2741	80.8019	75.6722
105.1795	80.8538	75.1388
106.0928	80.9051	74.6074
107.0140	80.9558	74.0780
107.9432	81.0058	73.5561
108.8804	81.0557	73.0327
109.8259	81.1046	72.5101
110.7795	81.1533	71.9948
111.7414	81.2015	71.4781
112.7116	81.2491	70.9626
113.6903	81.2962	70.4489
114.6775	81.3428	69.9414
115.6732	81.3892	69.4339
116.6776	81.4349	68.9266
117.6907	81.4803	68.4218
118.7126	81.5250	67.9185
119.7434	81.5694	67.4179
120.7831	81.6132	66.9185
121.8319	81.6566	66.4248
122.8897	81.6998	65.9294
123.9568	81.7423	65.4341
125.0331	81.7843	64.9453
126.1188	81.8262	64.4585
127.2138	81.8677	63.9695
128.3184	81.9085	63.4812
129.4326	81.9489	62.9992
130.5565	81.9892	62.5183
131.6901	82.0289	62.0352
132.8336	82.0681	61.5577
133.9870	82.1072	61.0825
135.1504	82.1458	60.6035
136.3239	82.1838	60.1271
137.5076	82.2215	59.6576
138.7015	82.2591	59.1864
139.9059	82.2960	58.7141
141.1207	82.3326	58.2459
142.3460	82.3688	57.7791
143.5820	82.4046	57.3138
144.8287	82.4401	56.8471
146.0863	82.4750	56.3840
147.3548	82.5098	55.9227
148.6342	82.5441	55.4599
149.9248	82.5779	55.0006
151.2266	82.6114	54.5429
152.5397	82.6446	54.0841
153.8642	82.6772	53.6280
155.2002	82.7097	53.1738
156.5478	82.7417	52.7185
157.9071	82.7732	52.2637
159.2782	82.8043	51.8116
160.6612	82.8351	51.3618
162.0563	82.8655	50.9093
163.4634	82.8953	50.4596
164.8827	82.9248	50.0127
166.3144	82.9539	49.5653
167.7585	82.9827	49.1180
169.2152	83.0109	48.6729
170.6844	83.0388	48.2289
172.1665	83.0662	47.7845
173.6614	83.0932	47.3424
175.1693	83.1198	46.9012
176.6903	83.1460	46.4601
178.2245	83.1717	46.0198
179.7720	83.1970	45.5806
181.3330	83.2218	45.1424
182.9075	83.2462	44.7057
184.4957	83.2701	44.2708
186.0976	83.2937	43.8354
187.7135	83.3167	43.4001
189.3434	83.3392	42.9673
190.9875	83.3613	42.5366
192.6458	83.3830	42.1058
194.3186	83.4042	41.6749
196.0059	83.4249	41.2463
197.7078	83.4451	40.8200
199.4245	83.4649	40.3938
201.1561	83.4843	39.9676
202.9027	83.5031	39.5434
204.6645	83.5214	39.1207
206.4416	83.5393	38.6983
208.2341	83.5566	38.2779
210.0422	83.5735	37.8590
211.8660	83.5899	37.4407
213.7056	83.6057	37.0244
215.5612	83.6211	36.6097
217.4330	83.6360	36.1958
219.3209	83.6504	35.7837
221.2253	83.6644	35.3734
223.1462	83.6778	34.9641
225.0837	83.6907	34.5562
227.0381	83.7031	34.1499
229.0095	83.7150	33.7457
230.9980	83.7264	33.3435
233.0038	83.7373	32.9427
235.0269	83.7477	32.5435
237.0677	83.7576	32.1461
239.1261	83.7670	31.7506
241.2024	83.7759	31.3573
243.2968	83.7843	30.9660
245.4093	83.7922	30.5764
247.5402	83.7996	30.1890
249.6896	83.8065	29.8036
251.8577	83.8130	29.4204
254.0445	83.8189	29.0394
256.2504	83.8243	28.6607
258.4754	83.8293	28.2842
260.7197	83.8338	27.9101
262.9836	83.8378	27.5383
265.2671	83.8413	27.1688
267.5704	83.8444	26.8019
269.8937	83.8470	26.4376
272.2372	83.8491	26.0758
274.6010	83.8508	25.7165
276.9853	83.8520	25.3599
279.3904	83.8527	25.0059
281.8163	83.8530	24.6547
284.2633	83.8529	24.3063
286.7316	83.8523	23.9606
289.2213	83.8513	23.6178
291.7326	83.8499	23.2779
294.2657	83.8481	22.9408
296.8208	83.8458	22.6067
299.3981	83.8431	22.2757
301.9978	83.8401	21.9476
304.6200	83.8366	21.6225
307.2650	83.8327	21.3005
309.9330	83.8285	20.9819
312.6241	83.8239	20.6661
315.3386	83.8189	20.3536
318.0767	83.8136	20.0442
320.8386	83.8079	19.7381
323.6244	83.8018	19.4352
326.4344	83.7954	19.1356
329.2688	83.7887	18.8394
332.1279	83.7817	18.5465
335.0117	83.7743	18.2568
337.9206	83.7666	17.9705
340.8548	83.7586	17.6876
343.8144	83.7503	17.4079
346.7998	83.7418	17.1316
349.8110	83.7329	16.8589
352.8484	83.7238	16.5896
355.9122	83.7144	16.3234
359.0026	83.7048	16.0607
362.1198	83.6949	15.8016
365.2641	83.6847	15.5460
368.4357	83.6743	15.2938
371.6348	83.6637	15.0450
374.8617	83.6529	14.7997
378.1166	83.6419	14.5577
381.3998	83.6307	14.3188
384.7115	83.6192	14.0837
388.0519	83.6076	13.8523
391.4214	83.5958	13.6240
394.8201	83.5838	13.3991
398.2483	83.5716	13.1776
401.7063	83.5593	12.9598
405.1943	83.5469	12.7454
408.7126	83.5343	12.5338
412.2614	83.5215	12.3259
415.8411	83.5086	12.1217
419.4518	83.4956	11.9204
423.0939	83.4825	11.7226
426.7676	83.4693	11.5282
430.4732	83.4559	11.3369
434.2110	83.4425	11.1489
437.9813	83.4289	10.9646
441.7842	83.4153	10.7832
445.6202	83.4016	10.6050
449.4896	83.3879	10.4301
453.3925	83.3740	10.2584
457.3293	83.3601	10.0900
461.3002	83.3462	9.9249
465.3057	83.3322	9.7628
469.3459	83.3182	9.6039
473.4213	83.3042	9.4478
477.5320	83.2901	9.2950
481.6784	83.2760	9.1453
485.8608	83.2618	8.9984
490.0795	83.2477	8.8548
494.3349	83.2336	8.7142
498.6272	83.2195	8.5765
502.9567	83.2054	8.4416
507.3239	83.1913	8.3097
511.7290	83.1773	8.1805
516.1723	83.1632	8.0542
520.6542	83.1493	7.9306
525.1751	83.1353	7.8096
529.7351	83.1214	7.6917
534.3348	83.1076	7.5761
538.9744	83.0939	7.4631
543.6543	83.0802	7.3529
548.3749	83.0666	7.2451
553.1364	83.0531	7.1398
557.9393	83.0397	7.0365
562.7839	83.0264	6.9357
567.6705	83.0132	6.8371
572.5996	83.0001	6.7407
577.5714	82.9871	6.6464
582.5865	82.9743	6.5539
587.6451	82.9617	6.4629
592.7476	82.9491	6.3739
597.8944	82.9368	6.2866
603.0859	82.9246	6.2005
608.3225	82.9125	6.1156
613.6045	82.9007	6.0318
618.9325	82.8890	5.9492
624.3066	82.8776	5.8670
629.7275	82.8663	5.7852
635.1954	82.8553	5.7036
640.7108	82.8444	5.6219
646.2741	82.8339	5.5399
651.8857	82.8235	5.4571
657.5460	82.8134	5.3736
663.2554	82.8036	5.2892
669.0145	82.7940	5.2039
674.8235	82.7847	5.1141
680.6830	82.7750	5.0504
686.5933	82.7678	5.1898
692.5550	82.7827	5.2362
698.5685	82.7938	4.9743
704.6341	82.8004	4.6635
710.7524	82.8055	4.1971
716.9239	82.7969	3.4772
723.1489	82.7665	2.5498
729.4280	82.7037	1.6308
735.7616	82.6178	0.9612
742.1502	82.5181	0.6648
748.5943	82.4243	0.4461
755.0943	82.3130	0.3992
761.6508	82.2139	0.6909
768.2642	82.1221	1.1056
774.9350	82.0458	1.5456
781.6638	81.9730	1.8969
788.4509	81.9010	2.3201
795.2970	81.8345	2.8051
802.2026	81.7682	3.5321
809.1681	81.7248	4.5249
816.1941	81.7026	5.5192
823.2811	81.6985	6.6225
830.4296	81.7258	7.7721
837.6402	81.7795	8.6832
844.9134	81.8474	9.2562
852.2498	81.9175	9.6314
859.6499	81.9949	9.6418
867.1142	82.0489	9.2322
874.6433	82.0746	8.9811
882.2379	82.0974	9.0208
889.8983	82.1211	9.2230
897.6253	82.1568	9.5649
905.4193	82.2091	9.8334
913.2811	82.2714	9.7481
921.2111	82.3235	9.2114
929.2099	82.3496	8.4494
937.2783	82.3511	7.4522
945.4166	82.3042	6.6895
953.6257	82.2540	6.1432
961.9060	82.1676	5.8292
970.2582	82.0866	6.2408
978.6829	82.0304	6.8499
987.1808	81.9854	7.6372
995.7525	81.9759	8.4223
1004.3990	81.9756	8.7585
1013.1200	81.9640	9.0277
1021.9170	81.9558	9.4088
1030.7900	81.9472	9.6971
1039.7400	81.9273	10.2326
1048.7680	81.9263	11.1370
1057.8750	81.9453	12.1317
1067.0600	81.9855	13.5291
1076.3260	82.0890	14.5553
1085.6710	82.1810	15.0229
1095.0980	82.2885	15.4854
1104.6070	82.3983	15.4919
1114.1980	82.4863	15.3373
1123.8730	82.5680	15.3447
1133.6310	82.6496	15.4441
1143.4750	82.7368	15.5879
1153.4030	82.8321	15.7641
1163.4180	82.9432	15.6400
1173.5200	83.0406	15.0973
1183.7100	83.1212	14.2838
1193.9880	83.1684	13.3115
1204.3550	83.1833	12.7748
1214.8130	83.2063	12.7129
1225.3610	83.2397	12.8107
1236.0010	83.2934	12.9512
1246.7330	83.3653	12.5691
1257.5580	83.4098	11.7319
1268.4780	83.4324	10.9086
1279.4920	83.4328	10.2787
1290.6020	83.4299	9.9014
1301.8080	83.4281	9.4272
1313.1110	83.4091	8.9043
1324.5130	83.3825	8.4474
1336.0140	83.3392	8.4356
1347.6140	83.3282	8.5994
1359.3160	83.3141	8.4703
1371.1190	83.3002	8.1170
1383.0240	83.2598	7.5450
1395.0330	83.1905	7.5532
1407.1460	83.1460	7.9171
1419.3640	83.0957	8.4374
1431.6880	83.0721	9.4067
1444.1200	83.0789	10.7066
1456.6590	83.1412	11.8690
1469.3070	83.2221	12.5285
1482.0650	83.3149	12.9509
1494.9340	83.4146	13.1289
1507.9140	83.5138	13.1004
1521.0080	83.6119	12.7941
1534.2140	83.6936	12.0122
1547.5360	83.7334	11.1371
1560.9730	83.7489	10.9119
1574.5270	83.7872	11.1832
1588.1990	83.8507	11.0902
1601.9890	83.9010	10.4199
1615.8990	83.9208	9.6932
1629.9300	83.9234	9.3911
1644.0830	83.9376	9.3184
1658.3580	83.9548	9.0656
1672.7580	83.9624	8.7701
1687.2820	83.9679	8.4983
1701.9330	83.9652	8.1459
1716.7110	83.9492	7.7151
1731.6170	83.9102	7.4218
1746.6520	83.8588	8.0291
1761.8180	83.8620	9.6142
1777.1160	83.9448	10.9469
1792.5470	84.0592	11.0872
1808.1120	84.1439	10.4464
1823.8110	84.1956	9.6946
1839.6480	84.2138	9.3726
1855.6210	84.2420	9.6505
1871.7330	84.2947	9.9126
1887.9860	84.3534	9.9473
1904.3790	84.4163	9.6090
1920.9150	84.4508	8.8758
1937.5940	84.4469	8.4829
1954.4180	84.4399	9.0963
1971.3880	84.4827	10.8246
1988.5060	84.6297	12.3048
2005.7720	84.8076	12.2368
2023.1880	84.9474	11.3117
2040.7550	85.0497	10.6944
2058.4750	85.1597	10.2604
2076.3490	85.2567	9.8036
2094.3780	85.3623	9.6424
2112.5630	85.4944	9.0584
2130.9070	85.6033	7.4540
2149.4090	85.6430	5.6597
2168.0720	85.6424	4.7453
2186.8980	85.6565	4.6502
2205.8870	85.7039	4.7300
2225.0400	85.7785	4.6717
2244.3600	85.8786	3.8782
2263.8480	85.9436	2.0431
2283.5050	85.9375	0.0462
2303.3330	85.8805	-1.1967
2323.3320	85.8172	-1.3072
2343.5060	85.8006	-0.7691
2363.8540	85.8298	-0.4897
2384.3800	85.8733	-0.7097
2405.0830	85.9124	-1.0089
2425.9670	85.9610	-0.9380
2447.0310	86.0490	-0.9025
2468.2790	86.1516	-1.3757
2489.7110	86.2557	-2.5465
2511.3290	86.3190	-4.0973
2533.1350	86.3581	-5.4045
2555.1300	86.3933	-7.3585
2577.3160	86.3364	-9.0533
2599.6950	86.2943	-9.0527
2622.2680	86.3319	-9.4640
2645.0370	86.3377	-10.7718
2668.0040	86.3363	-12.4058
2691.1700	86.2759	-14.0376
2714.5370	86.2047	-14.5722
2738.1080	86.1850	-15.2107
2761.8830	86.1384	-16.4579
2785.8640	86.0768	-17.0960
2810.0540	86.0545	-17.7211
2834.4530	86.0210	-19.0383
2859.0650	85.9581	-20.3562
2883.8900	85.8887	-21.4955
2908.9310	85.8080	-22.0817
2934.1890	85.7820	-22.8946
2959.6660	85.7334	-25.5635
2985.3650	85.5532	-28.0098
3011.2870	85.3761	-29.0660
3037.4340	85.2058	-30.2345
3063.8080	85.0144	-31.6049
3090.4110	84.8029	-33.2278
3117.2450	84.5360	-34.7327
3144.3120	84.2475	-35.7826
3171.6140	83.9295	-36.4995
3199.1530	83.5933	-36.1224
3226.9310	83.3078	-34.4423
3254.9510	83.1126	-32.5790
3283.2130	82.9765	-32.2254
3311.7210	82.7728	-32.5304
3340.4770	82.5611	-32.0977
3369.4820	82.3523	-31.1457
3398.7390	82.1746	-29.9777
3428.2510	82.0081	-28.8007
3458.0180	81.8594	-26.7284
3488.0440	81.8115	-25.3111
3518.3300	81.7096	-24.1723
3548.8800	81.6833	-22.5789
3579.6950	81.6611	-22.0107
3610.7770	81.6121	-21.0777
3642.1300	81.6182	-20.5210
3673.7540	81.5670	-20.7148
3705.6530	81.4970	-21.0264
3737.8290	81.3490	-19.8314
3770.2850	81.3234	-17.3672
3803.0220	81.3396	-15.5662
3836.0440	81.4069	-14.1049
3869.3520	81.4999	-13.5394
3902.9500	81.5779	-14.2738
3936.8390	81.5744	-16.9404
3971.0220	81.3536	-17.0812
4005.5030	81.2977	-14.5717
4040.2820	81.2750	-13.3185
4075.3640	81.2608	-11.8511
4110.7500	81.3019	-10.4394
4146.4440	81.3481	-9.4550
4182.4470	81.4096	-8.4679
4218.7640	81.4841	-7.2516
4255.3950	81.6097	-6.4760
4292.3450	81.7204	-7.0609
4329.6150	81.7571	-8.1211
4367.2090	81.7380	-8.6326
4405.1290	81.6935	-8.0211
4443.3790	81.6892	-6.3588
4481.9610	81.7494	-4.4099
4520.8770	81.8719	-3.0168
4560.1320	82.0077	-2.8186
4599.7280	82.0901	-2.0563
4639.6670	82.2572	-0.8862
4679.9530	82.4268	-0.8112
4720.5890	82.5818	-1.2800
4761.5780	82.7022	-2.1371
4802.9230	82.7779	-2.4630
4844.6260	82.8813	-3.3265
4886.6920	82.8772	-3.5710
4929.1230	82.9561	-2.8446
4971.9230	83.0178	-2.3475
5015.0940	83.1264	-1.4182
5058.6400	83.2622	-0.8751
5102.5640	83.4035	-0.0640
5146.8690	83.6057	1.4760
5191.5590	83.9108	1.5095
5236.6380	84.1520	-0.9590
5282.1070	84.2665	-3.3160
5327.9720	84.3485	-4.5965
5374.2340	84.4124	-5.0028
5420.8990	84.5227	-4.8334
5467.9680	84.6712	-5.4975
5515.4470	84.7802	-6.2521
5563.3370	84.9276	-6.7937
5611.6430	85.0691	-7.5280
5660.3690	85.2455	-9.0403
5709.5180	85.3576	-11.8973
5759.0940	85.3799	-14.3827
5809.1000	85.3841	-16.0880
5859.5400	85.3753	-17.7760
5910.4180	85.3387	-19.1530
5961.7390	85.3109	-19.9585
6013.5040	85.3077	-20.7969
6065.7190	85.3069	-21.9891
6118.3880	85.2970	-23.4081
6171.5140	85.2732	-25.1278
6225.1010	85.2154	-27.3010
6279.1530	85.0965	-29.3889
6333.6750	84.9431	-30.6037
6388.6700	84.8025	-31.1627
6444.1430	84.6750	-31.5269
6500.0970	84.5621	-31.5655
6556.5380	84.4851	-31.4874
6613.4680	84.4316	-32.2274
6670.8920	84.3245	-32.6811
6728.8160	84.2695	-32.6261
6787.2420	84.2121	-33.1935
6846.1750	84.1348	-33.3341
6905.6210	84.0963	-33.0023
6965.5820	84.0836	-32.8600
7026.0640	84.0883	-32.6967
7087.0710	84.1263	-32.5652
7148.6080	84.1892	-32.6283
7210.6790	84.2841	-33.5897
7273.2890	84.3338	-35.4922
7336.4430	84.3394	-37.5706
7400.1450	84.2949	-39.1742
7464.4010	84.2604	-40.4790
7529.2140	84.2070	-41.9541
7594.5900	84.1459	-43.5318
7660.5340	84.0566	-45.3269
7727.0500	83.9329	-46.6573
7794.1440	83.8210	-46.8601
7861.8200	83.7886	-47.1819
7930.0840	83.7625	-48.8831
7998.9410	83.6896	-51.4476
8068.3960	83.5539	-54.2709
8138.4530	83.3548	-56.9093
8209.1200	83.1094	-58.9923
8280.3990	82.8473	-60.8382
8352.2980	82.5470	-62.7919
8424.8210	82.1957	-64.2165
8497.9730	81.8308	-64.4955
8571.7610	81.4957	-63.1909
8646.1890	81.2779	-61.1012
8721.2640	81.1570	-60.2628
8796.9910	81.0271	-60.3760
8873.3750	80.9168	-61.1675
8950.4220	80.7510	-63.2066
9028.1380	80.4835	-64.6113
9106.5300	80.2241	-65.0839
9185.6010	79.9413	-65.0748
9265.3600	79.6902	-63.9324
9345.8110	79.5153	-62.5487
9426.9600	79.3883	-61.9114
9508.8140	79.2620	-61.7023
9591.3790	79.1479	-61.0063
9674.6610	79.1012	-60.8131
9758.6660	79.0337	-61.3989
9843.4000	78.9834	-63.6378
9928.8700	78.7654	-66.2682
10015.0800	78.5377	-68.0529
10102.0400	78.2294	-69.9432
10189.7600	77.8771	-70.3618
10278.2400	77.5747	-70.1669
10367.4800	77.2662	-69.9942
10457.5000	76.9849	-69.4476
10548.3100	76.7254	-69.0966
10639.9000	76.4634	-68.7350
10732.2800	76.2182	-68.0773
10825.4700	75.9973	-67.1771
10919.4700	75.8200	-66.7824
11014.2800	75.6209	-66.9484
11109.9200	75.4180	-67.4938
11206.3900	75.1614	-68.1784
11303.6900	74.8844	-68.1649
11401.8400	74.6185	-67.5545
11500.8400	74.3832	-66.5651
11600.7000	74.1952	-65.9745
11701.4300	74.0028	-66.2186
11803.0400	73.7826	-66.8627
11905.5200	73.5262	-67.0711
12008.9000	73.2951	-67.2001
12113.1700	73.0427	-68.0115
12218.3500	72.7510	-69.1350
12324.4400	72.4105	-70.1715
12431.4500	72.0350	-70.1610
12539.3900	71.7146	-69.6923
12648.2700	71.4098	-70.5991
12758.1000	71.0257	-72.1011
12868.8800	70.6116	-73.5616
12980.6200	70.1368	-75.2594
13093.3300	69.6206	-78.0317
13207.0200	68.9425	-81.9355
13321.6900	68.1055	-85.9948
13437.3600	67.0729	-91.6265
13554.0400	65.6431	-95.1925
13671.7300	64.0941	-91.1656
13790.4400	62.7606	-82.0782
13910.1800	61.6505	-72.3568
14030.9700	60.6704	-61.3902
14152.8000	59.9438	-49.7107
14275.6800	59.3509	-38.4209
14399.6400	58.9171	-26.3578
14524.6700	58.6646	-14.2508
14650.7900	58.5501	-2.2628
14778.0000	58.5884	9.9110
14906.3200	58.7746	22.3604
15035.7500	59.1368	35.4536
15166.3100	59.7185	48.5809
15297.9900	60.4931	63.1615
15430.8300	61.6886	78.0914
15564.8100	63.2280	86.9291
15699.9600	64.7195	88.9838
15836.2800	66.0388	88.9337
15973.7900	67.2647	88.2023
16112.4900	68.3768	85.9783
16252.3900	69.3322	83.0727
16393.5100	70.1711	80.1866
16535.8600	70.8977	78.0649
16679.4400	71.6143	76.7318
16824.2700	72.3296	74.2368
16970.3500	72.9470	69.9569
17117.7000	73.4062	66.2991
17266.3400	73.8542	63.7119
17416.2600	74.2683	60.3603
