Freq	Ohm	Deg
20.0000	10.7825	42.5671
20.1737	10.9137	43.4911
20.3488	11.0465	44.2654
20.5255	11.1809	44.9537
20.7037	11.3170	45.5821
20.8835	11.4547	46.1652
21.0648	11.5941	46.7121
21.2478	11.7352	47.2296
21.4322	11.8780	47.7225
21.6183	12.0225	48.1949
21.8061	12.1688	48.6500
21.9954	12.3169	49.0907
22.1864	12.4668	49.5195
22.3790	12.6185	49.9390
22.5733	12.7720	50.3514
22.7693	12.9274	50.7590
22.9670	13.0847	51.1644
23.1665	13.2440	51.5704
23.3676	13.4051	51.9799
23.5705	13.5682	52.3970
23.7752	13.7333	52.8269
23.9816	13.9004	53.2775
24.1899	14.0696	53.7642
24.3999	14.2408	54.5301
24.6118	14.4574	55.4215
24.8255	14.6972	56.1923
25.0410	14.9687	56.5800
25.2585	15.2028	56.8625
25.4778	15.4547	57.3931
25.6990	15.7160	57.9016
25.9221	15.9907	58.4073
26.1472	16.2752	58.8869
26.3743	16.5686	59.3994
26.6033	16.8789	59.9427
26.8343	17.2039	60.4981
27.0673	17.5478	61.1630
27.3023	17.9312	61.9587
27.5394	18.3711	62.2916
27.7785	18.7570	62.4761
28.0197	19.1707	63.1487
28.2630	19.6438	63.6920
28.5084	20.1144	64.2039
28.7559	20.6428	64.9941
29.0056	21.2527	65.2614
29.2575	21.8020	65.2177
29.5115	22.3596	65.6917
29.7677	22.9946	66.2889
30.0262	23.6722	66.7266
30.2869	24.3912	67.0944
30.5499	25.1418	67.4762
30.8152	25.9447	67.9768
31.0827	26.8225	68.5351
31.3526	27.7800	69.2417
31.6249	28.8847	70.0254
31.8995	30.1470	69.7081
32.1765	31.1907	69.5772
32.4558	32.4786	70.3773
32.7377	33.9033	70.9373
33.0219	35.5013	71.7743
33.3086	37.4140	72.9603
33.5979	39.8015	72.3617
33.8896	41.7918	71.1402
34.1839	44.0365	71.2612
34.4807	46.5844	71.5266
34.7801	49.5216	72.2624
35.0821	53.1928	73.5784
35.3867	58.0000	72.8037
35.6939	62.5610	70.9314
36.0039	67.9201	69.9004
36.3165	74.0322	68.5875
36.6318	81.2938	66.9639
36.9499	89.8484	64.0785
37.2707	99.2823	60.1780
37.5944	110.0897	55.7626
37.9208	122.7240	48.2513
38.2501	133.9737	37.0672
38.5822	142.3760	26.0876
38.9172	150.2022	14.0061
39.2551	153.4889	-1.1893
39.5960	150.6591	-15.9997
39.9398	144.0161	-28.7490
40.2866	134.9644	-40.4199
40.6364	123.7425	-50.9586
40.9892	111.4841	-57.8941
41.3451	101.3944	-62.5802
41.7041	92.0035	-67.0921
42.0662	83.5743	-70.3671
42.4315	76.2648	-72.8513
42.7999	69.8616	-76.1151
43.1716	63.2282	-77.4443
43.5464	58.4251	-76.9151
43.9245	54.2472	-77.3503
44.3059	50.6074	-77.8459
44.6906	47.2982	-78.0588
45.0787	44.4837	-78.4275
45.4701	41.7551	-78.8054
45.8649	39.3593	-78.5447
46.2632	37.2479	-78.0105
46.6649	35.4627	-77.5948
47.0701	33.8331	-78.2786
47.4788	32.0174	-78.2475
47.8910	30.5971	-77.2497
48.3069	29.3127	-76.9078
48.7263	28.1085	-76.8771
49.1494	26.9119	-76.5632
49.5762	25.8680	-76.3044
50.0066	24.7835	-75.7122
50.4408	23.9087	-74.6092
50.8788	23.1168	-73.9218
51.3206	22.3844	-73.3636
51.7662	21.6967	-72.9942
52.2157	21.0175	-72.8825
52.6691	20.3082	-72.1770
53.1264	19.7412	-71.1209
53.5877	19.2126	-70.4796
54.0530	18.7117	-69.8627
54.5223	18.2437	-69.2445
54.9958	17.8028	-68.6917
55.4733	17.3791	-68.1775
55.9550	16.9732	-67.5921
56.4408	16.5986	-67.0460
56.9309	16.2337	-66.6757
57.4252	15.8657	-66.4725
57.9238	15.4714	-65.8013
58.4268	15.1550	-64.8503
58.9341	14.8561	-64.1986
59.4458	14.5739	-63.5967
59.9620	14.3032	-63.1283
60.4826	14.0280	-62.8222
61.0078	13.7346	-62.1502
61.5375	13.4937	-61.2560
62.0719	13.2659	-60.5795
62.6108	13.0511	-59.9347
63.1545	12.8466	-59.4041
63.7029	12.6392	-59.0416
64.2560	12.4154	-58.3751
64.8139	12.2323	-57.5331
65.3767	12.0558	-56.8998
65.9444	11.8865	-56.2701
66.5170	11.7246	-55.6514
67.0945	11.5690	-55.0624
67.6771	11.4170	-54.4756
68.2647	11.2713	-53.8721
68.8575	11.1318	-53.2819
69.4554	10.9974	-52.7672
70.0585	10.8599	-52.3557
70.6668	10.7127	-51.7120
71.2804	10.5907	-50.9306
71.8993	10.4747	-50.3088
72.5236	10.3622	-49.7161
73.1533	10.2534	-49.1668
73.7885	10.1436	-48.7121
74.4292	10.0248	-48.0540
75.0755	9.9280	-47.2523
75.7274	9.8379	-46.6140
76.3849	9.7492	-46.0122
77.0481	9.6638	-45.3792
77.7172	9.5841	-44.7567
78.3920	9.5068	-44.1595
79.0726	9.4327	-43.5547
79.7592	9.3624	-42.9350
80.4518	9.2978	-42.3923
81.1503	9.2291	-41.9124
81.8550	9.1589	-41.2745
82.5657	9.1016	-40.5396
83.2826	9.0530	-39.8405
84.0058	9.0149	-39.2983
84.7352	8.9722	-38.9487
85.4709	8.9231	-38.6399
86.2131	8.8677	-38.1983
86.9617	8.8217	-37.8000
87.7168	8.7653	-37.4589
88.4784	8.7126	-37.0524
89.2467	8.6571	-36.6850
90.0216	8.6011	-36.3958
90.8032	8.5332	-35.9880
91.5917	8.4750	-35.3898
92.3870	8.4222	-34.8097
93.1892	8.3754	-34.2975
93.9983	8.3269	-33.7990
94.8145	8.2835	-33.3103
95.6378	8.2381	-32.8755
96.4682	8.1930	-32.5367
97.3058	8.1358	-32.1303
98.1507	8.0828	-31.3116
99.0030	8.0561	-30.6183
99.8626	8.0197	-30.1423
100.7297	7.9884	-29.4335
101.6044	7.9721	-28.7885
102.4866	7.9576	-28.5865
103.3765	7.9181	-28.3406
104.2741	7.8864	-27.8204
105.1795	7.8556	-27.3225
106.0928	7.8289	-26.8316
107.0140	7.8024	-26.3770
107.9432	7.7768	-25.9185
108.8804	7.7523	-25.4826
109.8259	7.7270	-25.0926
110.7795	7.6984	-24.6291
111.7414	7.6756	-24.1179
112.7116	7.6536	-23.6625
113.6903	7.6320	-23.1915
114.6775	7.6130	-22.7271
115.6732	7.5942	-22.3191
116.6776	7.5729	-21.8679
117.6907	7.5558	-21.3657
118.7126	7.5409	-20.9079
119.7434	7.5263	-20.4583
120.7831	7.5139	-20.0362
121.8319	7.5000	-19.6280
122.8897	7.4877	-19.2081
123.9568	7.4757	-18.8306
125.0331	7.4620	-18.4695
126.1188	7.4475	-18.0762
127.2138	7.4344	-17.6963
128.3184	7.4191	-17.3065
129.4326	7.4058	-16.8724
130.5565	7.3941	-16.4525
131.6901	7.3830	-16.0479
132.8336	7.3723	-15.6471
133.9870	7.3621	-15.2605
135.1504	7.3511	-14.8562
136.3239	7.3422	-14.4377
137.5076	7.3338	-14.0371
138.7015	7.3260	-13.6403
139.9059	7.3186	-13.2438
141.1207	7.3120	-12.8571
142.3460	7.3051	-12.4708
143.5820	7.2991	-12.0726
144.8287	7.2940	-11.6797
146.0863	7.2895	-11.2980
147.3548	7.2852	-10.9279
148.6342	7.2807	-10.5478
149.9248	7.2775	-10.1698
151.2266	7.2741	-9.8020
152.5397	7.2713	-9.4342
153.8642	7.2685	-9.0663
155.2002	7.2665	-8.7087
156.5478	7.2637	-8.3421
157.9071	7.2626	-7.9711
159.2782	7.2612	-7.6115
160.6612	7.2606	-7.2443
162.0563	7.2606	-6.8884
163.4634	7.2606	-6.5387
164.8827	7.2609	-6.1890
166.3144	7.2614	-5.8433
167.7585	7.2620	-5.5007
169.2152	7.2626	-5.1486
170.6844	7.2642	-4.7928
172.1665	7.2662	-4.4435
173.6614	7.2688	-4.1024
175.1693	7.2713	-3.7668
176.6903	7.2741	-3.4255
178.2245	7.2775	-3.0895
179.7720	7.2809	-2.7619
181.3330	7.2843	-2.4291
182.9075	7.2883	-2.0942
184.4957	7.2926	-1.7651
186.0976	7.2971	-1.4365
187.7135	7.3020	-1.1064
189.3434	7.3074	-0.7796
190.9875	7.3131	-0.4632
192.6458	7.3186	-0.1531
194.3186	7.3240	0.1599
196.0059	7.3295	0.4863
197.7078	7.3361	0.8143
199.4245	7.3430	1.1375
201.1561	7.3508	1.4411
202.9027	7.3574	1.7403
204.6645	7.3647	2.0486
206.4416	7.3717	2.3552
208.2341	7.3792	2.6696
210.0422	7.3871	2.9882
211.8660	7.3959	3.3012
213.7056	7.4047	3.6080
215.5612	7.4140	3.9123
217.4330	7.4232	4.2187
219.3209	7.4332	4.5319
221.2253	7.4439	4.8245
223.1462	7.4537	5.1086
225.0837	7.4635	5.4135
227.0381	7.4742	5.7256
229.0095	7.4853	6.0734
230.9980	7.5006	6.4235
233.0038	7.5172	6.6749
235.0269	7.5299	6.8943
237.0677	7.5417	7.1616
239.1261	7.5542	7.4249
241.2024	7.5650	7.7245
243.2968	7.5794	8.1076
245.4093	7.6001	8.4126
247.5402	7.6183	8.5960
249.6896	7.6332	8.7589
251.8577	7.6450	8.9197
254.0445	7.6535	9.0859
256.2504	7.6585	9.3365
258.4754	7.6664	9.7109
260.7197	7.6809	10.0988
262.9836	7.6993	10.3630
265.2671	7.7135	10.5764
267.5704	7.7279	10.8291
269.8937	7.7426	11.0246
272.2372	7.7522	11.2011
274.6010	7.7596	11.5126
276.9853	7.7735	11.8945
279.3904	7.7910	12.2107
281.8163	7.8089	12.4762
284.2633	7.8265	12.7161
286.7316	7.8429	12.9491
289.2213	7.8588	13.1837
291.7326	7.8737	13.4331
294.2657	7.8893	13.7138
296.8208	7.9067	13.9867
299.3981	7.9240	14.2389
301.9978	7.9412	14.4955
304.6200	7.9588	14.7646
307.2650	7.9775	15.0399
309.9330	7.9973	15.3149
312.6241	8.0186	15.5458
315.3386	8.0372	15.7590
318.0767	8.0559	15.9970
320.8386	8.0743	16.2457
323.6244	8.0935	16.5298
326.4344	8.1157	16.8368
329.2688	8.1415	17.0556
332.1279	8.1625	17.2156
335.0117	8.1821	17.4216
337.9206	8.2018	17.6353
340.8548	8.2206	17.8433
343.8144	8.2384	18.1105
346.7998	8.2609	18.3759
349.8110	8.2821	18.5943
352.8484	8.3034	18.8252
355.9122	8.3249	19.0657
359.0026	8.3476	19.2932
362.1198	8.3693	19.5154
365.2641	8.3918	19.7470
368.4357	8.4144	19.9720
371.6348	8.4372	20.1933
374.8617	8.4598	20.4302
378.1166	8.4844	20.6677
381.3998	8.5094	20.8286
384.7115	8.5288	20.9905
388.0519	8.5486	21.2207
391.4214	8.5692	21.4640
394.8201	8.5905	21.7373
398.2483	8.6150	22.0486
401.7063	8.6442	22.2965
405.1943	8.6704	22.5024
408.7126	8.6976	22.7391
412.2614	8.7257	22.9545
415.8411	8.7529	23.1543
419.4518	8.7797	23.3601
423.0939	8.8064	23.5716
426.7676	8.8332	23.8122
430.4732	8.8631	24.0359
434.2110	8.8915	24.2321
437.9813	8.9204	24.4612
441.7842	8.9521	24.6345
445.6202	8.9789	24.7373
449.4896	9.0008	24.9316
453.3925	9.0272	25.1961
457.3293	9.0554	25.4374
461.3002	9.0850	25.6880
465.3057	9.1179	25.8903
469.3459	9.1475	26.0515
473.4213	9.1764	26.2390
477.5320	9.2051	26.4372
481.6784	9.2340	26.6489
485.8608	9.2639	26.8841
490.0795	9.2967	27.0720
494.3349	9.3252	27.2496
498.6272	9.3553	27.5030
502.9567	9.3897	27.7247
507.3239	9.4221	27.9071
511.7290	9.4546	28.1104
516.1723	9.4878	28.3150
520.6542	9.5213	28.4970
525.1751	9.5527	28.7094
529.7351	9.5876	28.9762
534.3348	9.6267	29.2212
538.9744	9.6675	29.3773
543.6543	9.7032	29.5105
548.3749	9.7387	29.6959
553.1364	9.7755	29.8824
557.9393	9.8121	30.0717
562.7839	9.8505	30.2671
567.6705	9.8901	30.3951
572.5996	9.9239	30.5106
577.5714	9.9574	30.6868
582.5865	9.9917	30.9063
587.6451	10.0300	31.1538
592.7476	10.0723	31.3772
597.8944	10.1164	31.5618
603.0859	10.1614	31.6927
608.3225	10.2036	31.7581
613.6045	10.2401	31.8220
618.9325	10.2742	31.9374
624.3066	10.3090	32.0189
629.7275	10.3363	32.1110
635.1954	10.3642	32.3012
640.7108	10.3952	32.5194
646.2741	10.4286	32.7360
651.8857	10.4640	32.9625
657.5460	10.5030	33.1543
663.2554	10.5399	33.3096
669.0145	10.5760	33.4761
674.8235	10.6112	33.6831
680.6830	10.6502	33.9200
686.5933	10.6918	34.1419
692.5550	10.7356	34.3089
698.5685	10.7754	34.4767
704.6341	10.8180	34.6669
710.7524	10.8597	34.8436
716.9239	10.9024	35.0244
723.1489	10.9448	35.2051
729.4280	10.9881	35.3960
735.7616	11.0324	35.5879
742.1502	11.0777	35.7752
748.5943	11.1234	35.9805
755.0943	11.1728	36.1931
761.6508	11.2245	36.3259
768.2642	11.2700	36.4312
774.9350	11.3146	36.5908
781.6638	11.3602	36.7713
788.4509	11.4070	36.9741
795.2970	11.4575	37.1921
802.2026	11.5119	37.3361
809.1681	11.5605	37.4543
816.1941	11.6102	37.6056
823.2811	11.6590	37.7634
830.4296	11.7097	37.9194
837.6402	11.7593	38.0601
844.9134	11.8085	38.2181
852.2498	11.8589	38.3942
859.6499	11.9113	38.5616
867.1142	11.9635	38.7379
874.6433	12.0191	38.9432
882.2379	12.0797	39.0696
889.8983	12.1332	39.1588
897.6253	12.1872	39.2927
905.4193	12.2410	39.4390
913.2811	12.2969	39.6081
921.2111	12.3564	39.7735
929.2099	12.4189	39.8379
937.2783	12.4714	39.8817
945.4166	12.5251	39.9801
953.6257	12.5778	40.0593
961.9060	12.6293	40.0975
970.2582	12.6744	40.0644
978.6829	12.7070	40.0524
987.1808	12.7340	40.1629
995.7525	12.7629	40.3694
1004.3990	12.7954	40.6663
1013.1200	12.8386	41.0994
1021.9170	12.9044	41.4878
1030.7900	12.9755	41.6432
1039.7400	13.0362	41.7273
1048.7680	13.0941	41.8839
1057.8750	13.1544	42.0548
1067.0600	13.2145	42.2011
1076.3260	13.2733	42.3493
1085.6710	13.3321	42.5165
1095.0980	13.3925	42.6824
1104.6070	13.4524	42.8525
1114.1980	13.5142	43.0500
1123.8730	13.5798	43.2800
1133.6310	13.6535	43.4158
1143.4750	13.7168	43.4981
1153.4030	13.7805	43.6347
1163.4180	13.8431	43.7788
1173.5200	13.9064	43.9554
1183.7100	13.9735	44.1657
1193.9880	14.0474	44.2891
1204.3550	14.1109	44.3852
1214.8130	14.1772	44.5385
1225.3610	14.2426	44.6935
1236.0010	14.3099	44.8873
1246.7330	14.3827	45.0978
1257.5580	14.4610	45.2162
1268.4780	14.5297	45.3121
1279.4920	14.6008	45.4684
1290.6020	14.6729	45.6152
1301.8080	14.7455	45.7607
1313.1110	14.8189	45.9035
1324.5130	14.8922	46.0461
1336.0140	14.9663	46.1935
1347.6140	15.0410	46.3408
1359.3160	15.1160	46.5198
1371.1190	15.1973	46.7328
1383.0240	15.2863	46.8330
1395.0330	15.3620	46.8913
1407.1460	15.4387	47.0301
1419.3640	15.5171	47.1769
1431.6880	15.5968	47.3415
1444.1200	15.6814	47.5301
1456.6590	15.7730	47.6231
1469.3070	15.8526	47.6663
1482.0650	15.9307	47.7824
1494.9340	16.0104	47.9233
1507.9140	16.0919	48.0928
1521.0080	16.1801	48.2866
1534.2140	16.2761	48.3703
1547.5360	16.3594	48.3205
1560.9730	16.4241	48.4410
1574.5270	16.5082	48.6688
1588.1990	16.5922	48.8437
1601.9890	16.6832	49.0606
1615.8990	16.7837	49.2540
1629.9300	16.8893	49.2933
1644.0830	16.9758	49.3015
1658.3580	17.0627	49.4069
1672.7580	17.1504	49.5188
1687.2820	17.2385	49.6366
1701.9330	17.3277	49.7549
1716.7110	17.4167	49.8775
1731.6170	17.5069	50.0135
1746.6520	17.5988	50.1812
1761.8180	17.6981	50.3811
1777.1160	17.8073	50.4710
1792.5470	17.9018	50.5175
1808.1120	17.9981	50.6306
1823.8110	18.0942	50.7511
1839.6480	18.1925	50.8992
1855.6210	18.2962	51.0813
1871.7330	18.4109	51.1575
1887.9860	18.5090	51.1822
1904.3790	18.6078	51.2865
1920.9150	18.7076	51.4023
1937.5940	18.8091	51.5469
1954.4180	18.9174	51.7227
1971.3880	19.0359	51.7930
1988.5060	19.1387	51.8134
2005.7720	19.2414	51.9049
2023.1880	19.3450	52.0058
2040.7550	19.4495	52.1092
2058.4750	19.5549	52.2135
2076.3490	19.6608	52.3199
2094.3780	19.7675	52.4319
2112.5630	19.8755	52.5532
2130.9070	19.9856	52.7034
2149.4090	20.1038	52.8826
2168.0720	20.2328	52.9478
2186.8980	20.3440	52.9664
2205.8870	20.4560	53.0603
2225.0400	20.5686	53.1607
2244.3600	20.6819	53.3023
2263.8480	20.8051	53.4799
2283.5050	20.9393	53.5366
2303.3330	21.0548	53.5465
2323.3320	21.1708	53.6366
2343.5060	21.2881	53.7354
2363.8540	21.4062	53.8703
2384.3800	21.5340	54.0451
2405.0830	21.6743	54.1018
2425.9670	21.7952	54.1098
2447.0310	21.9175	54.1957
2468.2790	22.0411	54.2839
2489.7110	22.1655	54.3711
2511.3290	22.2903	54.4625
2533.1350	22.4165	54.5567
2555.1300	22.5434	54.6495
2577.3160	22.6706	54.7528
2599.6950	22.8003	54.8912
2622.2680	22.9393	55.0677
2645.0370	23.0931	55.1260
2668.0040	23.2256	55.1286
2691.1700	23.3590	55.2113
2714.5370	23.4936	55.3036
2738.1080	23.6298	55.4283
2761.8830	23.7755	55.5912
2785.8640	23.9354	55.6373
2810.0540	24.0728	55.6400
2834.4530	24.2133	55.7229
2859.0650	24.3545	55.8127
2883.8900	24.4985	55.9405
2908.9310	24.6536	56.1042
2934.1890	24.8244	56.1393
2959.6660	24.9703	56.1270
2985.3650	25.1198	56.1961
3011.2870	25.2694	56.2628
3037.4340	25.4206	56.3339
3063.8080	25.5728	56.4080
3090.4110	25.7270	56.4808
3117.2450	25.8814	56.5582
3144.3120	26.0389	56.6422
3171.6140	26.1981	56.7448
3199.1530	26.3661	56.8844
3226.9310	26.5502	56.9064
3254.9510	26.7077	56.8806
3283.2130	26.8673	56.9507
3311.7210	27.0305	57.0406
3340.4770	27.1995	57.1686
3369.4820	27.3839	57.3250
3398.7390	27.5867	57.3387
3428.2510	27.7617	57.2939
3458.0180	27.9389	57.3393
3488.0440	28.1197	57.3887
3518.3300	28.3028	57.4741
3548.8800	28.5026	57.5952
3579.6950	28.7222	57.5624
3610.7770	28.9115	57.4489
3642.1300	29.0987	57.4056
3673.7540	29.2842	57.3452
3705.6530	29.4633	57.2700
3737.8290	29.6376	57.1972
3770.2850	29.8084	57.1007
3803.0220	29.9678	56.9676
3836.0440	30.1115	56.8273
3869.3520	30.2395	56.7320
3902.9500	30.3642	56.7070
3936.8390	30.4949	56.6382
3971.0220	30.6010	56.5737
4005.5030	30.7088	56.6065
4040.2820	30.8215	56.6602
4075.3640	30.9366	56.7376
4110.7500	31.0601	56.8461
4146.4440	31.1953	56.8779
4182.4470	31.3078	56.8879
4218.7640	31.4201	56.9889
4255.3950	31.5382	57.1414
4292.3450	31.6680	57.3394
4329.6150	31.8155	57.5673
4367.2090	31.9849	57.7044
4405.1290	32.1372	57.8205
4443.3790	32.3045	57.9888
4481.9610	32.4754	58.1339
4520.8770	32.6519	58.2781
4560.1320	32.8326	58.4097
4599.7280	33.0143	58.5324
4639.6670	33.1965	58.6780
4679.9530	33.3881	58.8521
4720.5890	33.5907	59.0369
4761.5780	33.8082	59.2333
4802.9230	34.0468	59.3040
4844.6260	34.2545	59.3095
4886.6920	34.4612	59.3783
4929.1230	34.6641	59.4669
4971.9230	34.8716	59.6101
5015.0940	35.0969	59.7898
5058.6400	35.3450	59.8376
5102.5640	35.5586	59.8321
5146.8690	35.7757	59.9054
5191.5590	35.9928	59.9815
5236.6380	36.2121	60.0900
5282.1070	36.4446	60.2408
5327.9720	36.7012	60.2704
5374.2340	36.9210	60.2406
5420.8990	37.1411	60.3003
5467.9680	37.3650	60.3625
5515.4470	37.5879	60.4209
5563.3370	37.8115	60.4896
5611.6430	38.0377	60.5611
5660.3690	38.2644	60.6351
5709.5180	38.4932	60.7266
5759.0940	38.7286	60.8526
5809.1000	38.9814	61.0065
5859.5400	39.2578	61.0332
5910.4180	39.4959	61.0023
5961.7390	39.7333	61.0557
6013.5040	39.9721	61.1296
6065.7190	40.2161	61.2406
6118.3880	40.4773	61.3922
6171.5140	40.7667	61.4182
6225.1010	41.0157	61.3852
6279.1530	41.2671	61.4282
6333.6750	41.5160	61.4825
6388.6700	41.7691	61.5802
6444.1430	42.0396	61.7156
6500.0970	42.3363	61.7254
6556.5380	42.5901	61.6861
6613.4680	42.8478	61.7339
6670.8920	43.1074	61.7830
6728.8160	43.3686	61.8370
6787.2420	43.6329	61.8897
6846.1750	43.8969	61.9427
6905.6210	44.1631	62.0014
6965.5820	44.4304	62.0671
7026.0640	44.7014	62.1677
7087.0710	44.9909	62.3118
7148.6080	45.3111	62.3341
7210.6790	45.5875	62.2994
7273.2890	45.8668	62.3492
7336.4430	46.1490	62.4030
7400.1450	46.4326	62.4826
7464.4010	46.7320	62.6047
7529.2140	47.0601	62.6092
7594.5900	47.3408	62.5592
7660.5340	47.6208	62.6011
7727.0500	47.9042	62.6687
7794.1440	48.1957	62.7751
7861.8200	48.5099	62.9138
7930.0840	48.8546	62.9246
7998.9410	49.1513	62.8844
8068.3960	49.4516	62.9306
8138.4530	49.7548	62.9815
8209.1200	50.0600	63.0634
8280.3990	50.3844	63.1945
8352.2980	50.7445	63.2013
8424.8210	51.0522	63.1465
8497.9730	51.3612	63.1794
8571.7610	51.6716	63.2284
8646.1890	51.9894	63.2818
8721.2640	52.3092	63.3258
8796.9910	52.6290	63.3731
8873.3750	52.9517	63.4276
8950.4220	53.2775	63.4815
9028.1380	53.6032	63.5682
9106.5300	53.9513	63.7039
9185.6010	54.3349	63.7162
9265.3600	54.6642	63.6753
9345.8110	54.9968	63.7273
9426.9600	55.3353	63.7862
9508.8140	55.6756	63.8788
9591.3790	56.0410	64.0161
9674.6610	56.4418	63.9920
9758.6660	56.7569	64.0614
9843.4000	57.1747	64.2145
9928.8700	57.5687	64.1461
10015.0800	57.9116	64.1540
10102.0400	58.2840	64.3590
10189.7600	58.7468	64.3768
10278.2400	59.1087	64.3040
10367.4800	59.5022	64.4098
10457.5000	59.9301	64.3897
10548.3100	60.2991	64.3284
10639.9000	60.6750	64.3509
10732.2800	61.0523	64.3670
10825.4700	61.4269	64.3936
10919.4700	61.8080	64.4264
11014.2800	62.1883	64.4562
11109.9200	62.5701	64.4950
11206.3900	62.9547	64.5500
11303.6900	63.3491	64.6389
11401.8400	63.7700	64.7610
11500.8400	64.2314	64.7612
11600.7000	64.6312	64.7080
11701.4300	65.0347	64.7299
11803.0400	65.4348	64.7601
11905.5200	65.8382	64.8410
12008.9000	66.2741	64.9682
12113.1700	66.7541	64.9635
12218.3500	67.1654	64.9090
12324.4400	67.5845	64.9472
12431.4500	68.0091	64.9945
12539.3900	68.4428	65.0656
12648.2700	68.8991	65.1813
12758.1000	69.4081	65.1682
12868.8800	69.8396	65.0734
12980.6200	70.2593	65.0971
13093.3300	70.7007	65.1431
13207.0200	71.1427	65.1712
13321.6900	71.5874	65.2083
13437.3600	72.0385	65.2600
13554.0400	72.5044	65.2855
13671.7300	72.9520	65.3139
13790.4400	73.4144	65.3978
13910.1800	73.9052	65.5199
14030.9700	74.4506	65.5182
14152.8000	74.9213	65.4497
14275.6800	75.3925	65.4582
14399.6400	75.8588	65.4877
14524.6700	76.3372	65.5609
14650.7900	76.8468	65.6737
14778.0000	77.4117	65.6500
14906.3200	77.8890	65.5566
15035.7500	78.3627	65.5481
15166.3100	78.8275	65.5590
15297.9900	79.2983	65.5904
15430.8300	79.7715	65.6343
15564.8100	80.2552	65.6986
15699.9600	80.7553	65.7614
15836.2800	81.2592	65.8424
15973.7900	81.7952	65.9305
16112.4900	82.3413	66.0386
16252.3900	82.9468	66.0662
16393.5100	83.4912	66.0310
16535.8600	84.0391	66.0563
16679.4400	84.5906	66.0835
16824.2700	85.1458	66.1111
16970.3500	85.7046	66.1387
17117.7000	86.2671	66.1660
17266.3400	86.8333	66.1930
17416.2600	87.4031	66.2197
17567.4900	87.9768	66.2461
17720.0200	88.5541	66.2722
17873.8900	89.1353	66.2979
18029.0800	89.7203	66.3233
18185.6300	90.3091	66.3483
18343.5400	90.9018	66.3731
18502.8100	91.4984	66.3975
18663.4700	92.0989	66.4217
18825.5300	92.7034	66.4456
18988.9900	93.3118	66.4691
