Freq	Ohm	Deg
10.0000	9.8676	36.9206
10.0956	9.9255	37.6868
10.1921	9.9817	38.4051
10.2895	10.0405	39.1355
10.3879	10.1018	39.8714
10.4871	10.1669	40.6368
10.5874	10.2382	41.4497
10.6886	10.3190	42.3139
10.7908	10.4131	43.1957
10.8939	10.5209	44.0414
10.9980	10.6408	44.7999
11.1031	10.7676	45.4585
11.2093	10.8988	46.0337
11.3164	11.0318	46.5268
11.4246	11.1636	46.9376
11.5338	11.2901	47.2953
11.6440	11.4106	47.6528
11.7553	11.5271	48.0571
11.8677	11.6444	48.5105
11.9811	11.7642	48.9841
12.0957	11.8868	49.4631
12.2113	12.0115	49.9494
12.3280	12.1389	50.4535
12.4458	12.2698	50.9781
12.5648	12.4051	51.5296
12.6849	12.5462	52.1219
12.8061	12.6962	52.7793
12.9285	12.8617	53.4850
13.0521	13.0447	54.1823
13.1769	13.2448	54.8097
13.3028	13.4557	55.3442
13.4300	13.6740	55.8039
13.5583	13.8971	56.2011
13.6879	14.1236	56.5267
13.8188	14.3478	56.7863
13.9509	14.5676	57.0092
14.0842	14.7805	57.2389
14.2188	14.9903	57.5129
14.3547	15.1996	57.8394
14.4919	15.4123	58.2249
14.6305	15.6321	58.6599
14.7703	15.8608	59.1385
14.9115	16.1011	59.6659
15.0540	16.3570	60.2449
15.1979	16.6332	60.8563
15.3432	16.9315	61.4718
15.4898	17.2533	62.0547
15.6379	17.5945	62.5799
15.7874	17.9525	63.0303
15.9383	18.3189	63.4105
16.0906	18.6902	63.7671
16.2444	19.0667	64.1524
16.3997	19.4551	64.5969
16.5564	19.8616	65.0937
16.7147	20.2905	65.6334
16.8745	20.7460	66.2261
17.0358	21.2368	66.8760
17.1986	21.7714	67.5488
17.3630	22.3527	68.1874
17.5289	22.9763	68.7591
17.6965	23.6369	69.2879
17.8656	24.3370	69.8234
18.0364	25.0868	70.3885
18.2088	25.8974	70.9633
18.3829	26.7757	71.5115
18.5586	27.7241	72.0176
18.7360	28.7476	72.4829
18.9150	29.8523	72.9169
19.0958	31.0511	73.3124
19.2784	32.3533	73.6207
19.4626	33.7581	73.7778
19.6487	35.2500	73.7157
19.8365	36.7870	73.5176
20.0261	38.3749	73.3572
20.2175	40.0366	73.3992
20.4108	41.8568	73.6706
20.6058	43.8799	74.1017
20.8028	46.1717	74.6831
21.0016	48.7982	75.4678
21.2024	51.9081	76.4301
21.4050	55.6269	77.3720
21.6096	60.0608	78.1151
21.8162	65.2853	78.7451
22.0247	71.5705	79.6983
22.2353	79.6201	81.2471
22.4478	90.6218	82.4237
22.6624	105.2603	81.5257
22.8790	123.6243	76.9526
23.0977	143.9239	68.5830
23.3184	164.6071	57.3527
23.5413	183.4790	43.7071
23.7663	198.0764	27.8049
23.9935	204.8767	10.5103
24.2228	202.8418	-6.5536
24.4544	192.9533	-21.6106
24.6881	179.2878	-34.1011
24.9241	163.8216	-44.5752
25.1623	148.2160	-53.4238
25.4028	132.9503	-60.9309
25.6457	118.6174	-66.9932
25.8908	105.5929	-71.5553
26.1383	94.2073	-74.7022
26.3881	84.4905	-76.7821
26.6403	76.2688	-78.2431
26.8950	69.1978	-79.3609
27.1520	63.0290	-80.0603
27.4116	57.6638	-80.1309
27.6736	53.1111	-79.5786
27.9381	49.3032	-78.6469
28.2051	46.1313	-77.6111
28.4747	43.4438	-76.6094
28.7469	41.1474	-75.6470
29.0217	39.1695	-74.7221
29.2991	37.4727	-73.9429
29.5791	35.9709	-73.4290
29.8619	34.6021	-73.1955
30.1473	33.3024	-73.2175
30.4355	32.0317	-73.3385
30.7264	30.7952	-73.4313
31.0201	29.5958	-73.4228
31.3166	28.4543	-73.3360
31.6159	27.3530	-73.1745
31.9181	26.3017	-72.8213
32.2232	25.3188	-72.1511
32.5312	24.4508	-71.2154
32.8421	23.6977	-70.2036
33.1561	23.0533	-69.3210
33.4730	22.4714	-68.6720
33.7929	21.9310	-68.2407
34.1159	21.4033	-68.0183
34.4420	20.8716	-67.9075
34.7712	20.3330	-67.8047
35.1036	19.7933	-67.6302
35.4391	19.2639	-67.3832
35.7779	18.7447	-67.0764
36.1199	18.2393	-66.6820
36.4651	17.7518	-66.1451
36.8137	17.2974	-65.4781
37.1655	16.8770	-64.7748
37.5208	16.4858	-64.1197
37.8794	16.1085	-63.4995
38.2415	15.7451	-62.8119
38.6070	15.4023	-61.9864
38.9760	15.0936	-61.0631
39.3486	14.8184	-60.1604
39.7247	14.5696	-59.3582
40.1044	14.3354	-58.6665
40.4877	14.1103	-58.0523
40.8747	13.8906	-57.5083
41.2654	13.6715	-57.0276
41.6599	13.4493	-56.5701
42.0581	13.2243	-56.0720
42.4601	13.0017	-55.4841
42.8659	12.7883	-54.8164
43.2757	12.5860	-54.1059
43.6893	12.3952	-53.3806
44.1069	12.2143	-52.6507
44.5285	12.0428	-51.9125
44.9541	11.8803	-51.1683
45.3838	11.7266	-50.4206
45.8176	11.5812	-49.6726
46.2555	11.4438	-48.9280
46.6977	11.3137	-48.1913
47.1440	11.1904	-47.4660
47.5947	11.0731	-46.7553
48.0496	10.9607	-46.0583
48.5089	10.8529	-45.3711
48.9725	10.7492	-44.6908
49.4406	10.6495	-44.0168
49.9132	10.5534	-43.3491
50.3903	10.4607	-42.6862
50.8719	10.3711	-42.0236
51.3582	10.2850	-41.3571
51.8491	10.2024	-40.6857
52.3447	10.1238	-40.0100
52.8450	10.0493	-39.3336
53.3501	9.9788	-38.6576
53.8601	9.9126	-37.9819
54.3749	9.8508	-37.3117
54.8946	9.7934	-36.6583
55.4193	9.7395	-36.0354
55.9491	9.6875	-35.4459
56.4838	9.6363	-34.8800
57.0237	9.5856	-34.3285
57.5688	9.5352	-33.7856
58.1191	9.4849	-33.2468
58.6746	9.4349	-32.7046
59.2354	9.3856	-32.1500
59.8016	9.3379	-31.5823
60.3732	9.2923	-31.0079
60.9503	9.2489	-30.4315
61.5329	9.2077	-29.8563
62.1210	9.1686	-29.2820
62.7148	9.1317	-28.7090
63.3143	9.0969	-28.1397
63.9195	9.0643	-27.5774
64.5304	9.0335	-27.0265
65.1472	9.0041	-26.4873
65.7699	8.9758	-25.9557
66.3986	8.9484	-25.4284
67.0333	8.9222	-24.9039
67.6740	8.8970	-24.3820
68.3209	8.8729	-23.8615
68.9739	8.8499	-23.3394
69.6332	8.8285	-22.8148
70.2988	8.8087	-22.2894
70.9707	8.7908	-21.7656
71.6491	8.7748	-21.2478
72.3339	8.7606	-20.7400
73.0253	8.7478	-20.2458
73.7233	8.7360	-19.7644
74.4280	8.7251	-19.2935
75.1394	8.7149	-18.8316
75.8576	8.7054	-18.3796
76.5827	8.6962	-17.9376
77.3147	8.6873	-17.5027
78.0537	8.6786	-17.0709
78.7998	8.6704	-16.6409
79.5530	8.6628	-16.2148
80.3134	8.6556	-15.7951
81.0811	8.6486	-15.3815
81.8561	8.6419	-14.9704
82.6385	8.6355	-14.5586
83.4284	8.6297	-14.1463
84.2258	8.6245	-13.7364
85.0309	8.6200	-13.3321
85.8436	8.6159	-12.9338
86.6642	8.6121	-12.5399
87.4925	8.6086	-12.1491
88.3288	8.6053	-11.7610
89.1731	8.6022	-11.3746
90.0255	8.5993	-10.9878
90.8860	8.5968	-10.5989
91.7547	8.5949	-10.2085
92.6317	8.5935	-9.8206
93.5171	8.5924	-9.4365
94.4110	8.5914	-9.0497
95.3134	8.5908	-8.6492
96.2245	8.5914	-8.2268
97.1442	8.5947	-7.7907
98.0728	8.6007	-7.3574
99.0102	8.6093	-6.9407
99.9566	8.6195	-6.5429
100.9120	8.6311	-6.1621
101.8766	8.6437	-5.8036
102.8503	8.6566	-5.4738
103.8334	8.6685	-5.1670
104.8259	8.6792	-4.8676
105.8279	8.6888	-4.5599
106.8394	8.6984	-4.2393
107.8606	8.7086	-3.9103
108.8916	8.7200	-3.5772
109.9324	8.7327	-3.2498
110.9832	8.7466	-2.9377
112.0440	8.7609	-2.6493
113.1150	8.7745	-2.3805
114.1962	8.7873	-2.1212
115.2877	8.7990	-1.8650
116.3897	8.8101	-1.6110
117.5022	8.8201	-1.3568
118.6253	8.8294	-1.0934
119.7592	8.8386	-0.8120
120.9039	8.8488	-0.5155
122.0596	8.8605	-0.2152
123.2263	8.8737	0.0776
124.4041	8.8878	0.3575
125.5932	8.9024	0.6262
126.7937	8.9172	0.8839
128.0056	8.9320	1.1328
129.2292	8.9466	1.3742
130.4644	8.9610	1.6086
131.7114	8.9749	1.8370
132.9704	8.9883	2.0623
134.2414	9.0011	2.2894
135.5245	9.0138	2.5202
136.8199	9.0266	2.7519
138.1277	9.0396	2.9795
139.4480	9.0523	3.2014
140.7809	9.0647	3.4198
142.1265	9.0768	3.6374
143.4850	9.0885	3.8552
144.8565	9.0998	4.0741
146.2411	9.1109	4.2961
147.6389	9.1219	4.5238
149.0501	9.1332	4.7577
150.4748	9.1449	4.9953
151.9131	9.1572	5.2342
153.3651	9.1700	5.4717
154.8311	9.1834	5.7058
156.3110	9.1971	5.9341
157.8051	9.2108	6.1565
159.3135	9.2243	6.3758
160.8362	9.2377	6.5937
162.3736	9.2508	6.8115
163.9256	9.2637	7.0311
165.4925	9.2765	7.2557
167.0743	9.2895	7.4886
168.6713	9.3031	7.7286
170.2835	9.3175	7.9715
171.9112	9.3328	8.2143
173.5544	9.3490	8.4549
175.2133	9.3658	8.6916
176.8880	9.3832	8.9220
178.5788	9.4009	9.1465
180.2857	9.4186	9.3688
182.0090	9.4364	9.5931
183.7487	9.4547	9.8211
185.5050	9.4737	10.0518
187.2782	9.4935	10.2870
189.0683	9.5149	10.5248
190.8754	9.5379	10.7539
192.6999	9.5622	10.9577
194.5418	9.5861	11.1265
196.4013	9.6080	11.2706
198.2786	9.6275	11.4087
200.1738	9.6447	11.5524
202.0872	9.6600	11.7067
204.0188	9.6739	11.8779
205.9689	9.6870	12.0794
207.9376	9.7013	12.3157
209.9252	9.7182	12.5719
211.9318	9.7380	12.8273
213.9575	9.7601	13.0664
216.0026	9.7833	13.2862
218.0672	9.8071	13.4869
220.1516	9.8303	13.6696
222.2559	9.8522	13.8446
224.3803	9.8728	14.0234
226.5250	9.8924	14.2165
228.6902	9.9117	14.4352
230.8762	9.9321	14.6942
233.0830	9.9560	15.0101
235.3109	9.9876	15.3589
237.5601	10.0274	15.6864
239.8308	10.0740	15.9351
242.1232	10.1216	16.0952
244.4375	10.1684	16.1966
246.7739	10.2127	16.2636
249.1327	10.2557	16.2856
251.5140	10.2939	16.2444
253.9181	10.3256	16.1378
256.3451	10.3459	16.0024
258.7954	10.3566	15.8923
261.2691	10.3585	15.8347
263.7664	10.3555	15.8372
266.2876	10.3484	15.8899
268.8328	10.3386	16.0066
271.4025	10.3283	16.2189
273.9966	10.3231	16.5355
276.6156	10.3273	16.9081
279.2596	10.3412	17.2689
281.9289	10.3616	17.5712
284.6237	10.3844	17.8217
287.3442	10.4080	18.0472
290.0908	10.4319	18.2635
292.8636	10.4567	18.4738
295.6629	10.4821	18.6732
298.4890	10.5076	18.8626
301.3421	10.5331	19.0447
304.2224	10.5584	19.2221
307.1303	10.5836	19.3971
310.0660	10.6087	19.5685
313.0297	10.6337	19.7334
316.0218	10.6582	19.8895
319.0424	10.6816	20.0410
322.0920	10.7039	20.1950
325.1707	10.7252	20.3584
328.2788	10.7465	20.5314
331.4166	10.7678	20.7111
334.5844	10.7893	20.8980
337.7825	10.8112	21.0950
341.0112	10.8343	21.3005
344.2707	10.8587	21.5070
347.5614	10.8843	21.7067
350.8835	10.9102	21.8989
354.2374	10.9361	22.0904
357.6234	10.9624	22.2862
361.0417	10.9893	22.4869
364.4927	11.0172	22.6888
367.9766	11.0459	22.8888
371.4939	11.0753	23.0859
375.0448	11.1054	23.2803
378.6296	11.1360	23.4711
382.2487	11.1670	23.6578
385.9024	11.1983	23.8414
389.5910	11.2297	24.0246
393.3149	11.2615	24.2094
397.0744	11.2938	24.3954
400.8698	11.3269	24.5811
404.7014	11.3608	24.7650
408.5697	11.3956	24.9439
412.4750	11.4310	25.1142
416.4176	11.4667	25.2728
420.3979	11.5022	25.4181
424.4163	11.5369	25.5500
428.4730	11.5702	25.6656
432.5685	11.6009	25.7699
436.7032	11.6287	25.8750
440.8774	11.6537	25.9940
445.0915	11.6772	26.1339
449.3458	11.6999	26.2937
453.6409	11.7226	26.4734
457.9770	11.7459	26.6753
462.3545	11.7710	26.8957
466.7739	11.7985	27.1253
471.2355	11.8283	27.3544
475.7397	11.8598	27.5786
480.2871	11.8928	27.8000
484.8778	11.9270	28.0196
489.5125	11.9624	28.2372
494.1915	11.9990	28.4515
498.9152	12.0366	28.6616
503.6840	12.0750	28.8672
508.4984	12.1141	29.0686
513.3588	12.1537	29.2664
518.2657	12.1938	29.4604
523.2195	12.2342	29.6501
528.2207	12.2749	29.8349
533.2696	12.3154	30.0153
538.3668	12.3557	30.1927
543.5128	12.3957	30.3677
548.7079	12.4351	30.5409
553.9527	12.4737	30.7172
559.2476	12.5118	30.9046
564.5931	12.5503	31.1112
569.9897	12.5906	31.3342
575.4379	12.6334	31.5623
580.9382	12.6787	31.7852
586.4910	12.7258	31.9992
592.0970	12.7744	32.2040
597.7565	12.8241	32.3950
603.4701	12.8742	32.5663
609.2383	12.9232	32.7200
615.0616	12.9703	32.8644
620.9406	13.0153	33.0094
626.8758	13.0587	33.1627
632.8678	13.1007	33.3247
638.9170	13.1418	33.4975
645.0240	13.1821	33.6891
651.1894	13.2228	33.9147
657.4138	13.2666	34.1944
663.6976	13.3188	34.5086
670.0415	13.3799	34.8057
676.4460	13.4483	35.0250
682.9118	13.5148	35.1602
689.4393	13.5771	35.2563
696.0293	13.6336	35.3455
702.6822	13.6865	35.4297
709.3987	13.7332	35.5106
716.1795	13.7745	35.6178
723.0250	13.8120	35.7975
729.9360	13.8543	36.0520
736.9130	13.9038	36.3284
743.9567	13.9605	36.5805
751.0678	14.0198	36.7882
758.2468	14.0791	36.9698
765.4944	14.1375	37.1433
772.8113	14.1953	37.3182
780.1982	14.2531	37.4937
787.6556	14.3108	37.6674
795.1844	14.3681	37.8403
802.7851	14.4251	38.0144
810.4584	14.4818	38.1858
818.2051	14.5370	38.3587
826.0259	14.5910	38.5530
833.9213	14.6457	38.8026
841.8923	14.7080	39.1207
849.9395	14.7836	39.4545
858.0635	14.8716	39.7207
866.2653	14.9643	39.8563
874.5454	15.0498	39.8813
882.9046	15.1244	39.8546
891.3438	15.1860	39.8087
899.8636	15.2348	39.7503
908.4649	15.2668	39.7093
917.1484	15.2847	39.7530
925.9149	15.2947	39.9531
934.7652	15.3119	40.3135
943.7000	15.3427	40.7954
952.7203	15.3966	41.3379
961.8268	15.4719	41.8642
971.0203	15.5668	42.3223
980.3017	15.6733	42.6766
989.6719	15.7850	42.9413
999.1316	15.8978	43.1339
1008.6820	16.0090	43.2476
1018.3230	16.1123	43.2794
1028.0570	16.2019	43.2700
1037.8830	16.2774	43.2831
1047.8040	16.3437	43.3687
1057.8190	16.4092	43.5187
1067.9300	16.4761	43.6919
1078.1380	16.5438	43.8637
1088.4430	16.6095	44.0443
1098.8470	16.6746	44.2710
1109.3500	16.7446	44.5588
1119.9540	16.8247	44.8777
1130.6590	16.9152	45.1740
1141.4660	17.0113	45.4144
1152.3770	17.1069	45.6164
1163.3920	17.2011	45.8202
1174.5120	17.2964	46.0530
1185.7380	17.3981	46.2923
1197.0720	17.5037	46.5042
1208.5140	17.6115	46.6606
1220.0660	17.7124	46.7897
1231.7270	17.8105	46.9364
1243.5010	17.9066	47.1086
1255.3870	18.0059	47.2802
1267.3860	18.1022	47.4338
1279.5000	18.1962	47.5974
1291.7300	18.2874	47.8211
1304.0770	18.3885	48.1096
1316.5420	18.5012	48.4019
1329.1260	18.6251	48.6424
1341.8310	18.7506	48.8096
1354.6560	18.8727	48.9362
1367.6050	18.9897	49.0561
1380.6770	19.1037	49.1894
1393.8740	19.2167	49.3328
1407.1970	19.3292	49.4758
1420.6480	19.4402	49.6176
1434.2270	19.5493	49.7672
1447.9360	19.6575	49.9368
1461.7760	19.7672	50.1317
1475.7480	19.8804	50.3458
1489.8540	19.9982	50.5735
1504.0940	20.1216	50.8113
1518.4710	20.2519	51.0484
1532.9850	20.3883	51.2646
1547.6380	20.5275	51.4407
1562.4310	20.6635	51.5903
1577.3660	20.7956	51.7518
1592.4430	20.9266	51.9641
1607.6640	21.0655	52.2260
1623.0310	21.2148	52.5069
1638.5440	21.3761	52.7844
1654.2060	21.5471	53.0575
1670.0180	21.7308	53.3253
1685.9800	21.9268	53.5648
1702.0960	22.1331	53.7461
1718.3650	22.3413	53.8714
1734.7900	22.5499	53.9754
1751.3720	22.7598	54.0890
1768.1120	22.9782	54.2154
1785.0120	23.2072	54.3305
1802.0740	23.4482	54.4168
1819.2990	23.7007	54.4536
1836.6890	23.9619	54.4236
1854.2450	24.2284	54.3154
1871.9680	24.4965	54.1084
1889.8610	24.7580	53.7785
1907.9250	25.0027	53.2996
1926.1620	25.2132	52.6672
1944.5730	25.3749	51.9119
1963.1600	25.4761	51.0474
1981.9250	25.4985	50.1152
2000.8690	25.4330	49.2337
2019.9940	25.2881	48.5494
2039.3020	25.0901	48.1829
2058.7950	24.8762	48.1513
2078.4730	24.6698	48.4157
2098.3400	24.4918	48.9754
2118.3970	24.3690	49.7900
2138.6460	24.3173	50.7472
2159.0880	24.3395	51.7115
2179.7250	24.4220	52.5809
2200.5600	24.5470	53.3411
2221.5940	24.7055	54.0018
2242.8290	24.8874	54.5613
2264.2660	25.0846	55.0313
2285.9090	25.2908	55.4264
2307.7590	25.5016	55.7647
2329.8170	25.7151	56.0585
2352.0870	25.9291	56.3141
2374.5690	26.1417	56.5440
2397.2660	26.3536	56.7581
2420.1800	26.5647	56.9598
2443.3130	26.7756	57.1536
2466.6670	26.9871	57.3411
2490.2450	27.1995	57.5211
2514.0480	27.4132	57.6931
2538.0780	27.6280	57.8580
2562.3380	27.8443	58.0160
2586.8300	28.0621	58.1658
2611.5560	28.2813	58.3049
2636.5180	28.5010	58.4334
2661.7190	28.7210	58.5567
2687.1610	28.9424	58.6760
2712.8460	29.1662	58.7800
2738.7760	29.3898	58.8469
2764.9550	29.6056	58.8619
2791.3830	29.8038	58.8520
2818.0640	29.9842	58.8682
2845.0010	30.1529	58.9571
2872.1940	30.3256	59.1167
2899.6480	30.5065	59.3157
2927.3640	30.6996	59.5384
2955.3450	30.9048	59.7873
2983.5930	31.1304	60.0512
3012.1120	31.3756	60.2881
3040.9030	31.6349	60.4538
3069.9690	31.8910	60.5508
3099.3130	32.1395	60.6223
3128.9380	32.3791	60.7051
3158.8450	32.6183	60.8111
3189.0390	32.8592	60.9250
3219.5210	33.1030	61.0396
3250.2940	33.3490	61.1509
3281.3620	33.5970	61.2596
3312.7270	33.8470	61.3665
3344.3910	34.0989	61.4714
3376.3580	34.3528	61.5744
3408.6310	34.6087	61.6753
3441.2120	34.8665	61.7738
3474.1040	35.1262	61.8701
3507.3110	35.3878	61.9644
3540.8360	35.6512	62.0569
3574.6800	35.9165	62.1478
3608.8490	36.1837	62.2370
3643.3440	36.4531	62.3247
3678.1680	36.7248	62.4097
3713.3260	36.9986	62.4910
3748.8190	37.2742	62.5676
3784.6520	37.5511	62.6388
3820.8270	37.8288	62.7036
3857.3480	38.1063	62.7597
3894.2180	38.3816	62.8090
3931.4410	38.6541	62.8572
3969.0190	38.9239	62.9113
4006.9570	39.1932	62.9734
4045.2570	39.4628	63.0404
4083.9230	39.7331	63.1079
4122.9590	40.0025	63.1769
4162.3680	40.2716	63.2533
4202.1530	40.5413	63.3421
4242.3190	40.8145	63.4442
4282.8690	41.0929	63.5549
4323.8070	41.3771	63.6709
4365.1350	41.6675	63.7918
4406.8590	41.9653	63.9177
4448.9820	42.2719	64.0434
4491.5070	42.5866	64.1597
4534.4380	42.9066	64.2609
4577.7810	43.2284	64.3512
4621.5370	43.5513	64.4387
4665.7110	43.8757	64.5299
4710.3080	44.2040	64.6273
4755.3310	44.5376	64.7321
4800.7850	44.8801	64.8433
4846.6730	45.2335	64.9500
4892.9990	45.5965	65.0373
4939.7680	45.9640	65.0946
4986.9850	46.3289	65.1265
5034.6520	46.6885	65.1443
5082.7760	47.0414	65.1541
5131.3590	47.3865	65.1597
5180.4060	47.7225	65.1697
5229.9230	48.0515	65.1998
5279.9130	48.3801	65.2596
5330.3800	48.7162	65.3415
5381.3300	49.0622	65.4314
5432.7670	49.4186	65.5174
5484.6960	49.7824	65.5937
5537.1210	50.1521	65.6589
5590.0470	50.5249	65.7097
5643.4790	50.8974	65.7461
5697.4220	51.2669	65.7696
5751.8800	51.6300	65.7812
5806.8590	51.9828	65.7899
5862.3630	52.3256	65.8098
5918.3980	52.6617	65.8552
5974.9680	52.9992	65.9289
6032.0800	53.3424	66.0240
6089.7370	53.6949	66.1363
6147.9450	54.0593	66.2638
6206.7100	54.4397	66.3993
6266.0360	54.8362	66.5301
6325.9290	55.2461	66.6438
6386.3950	55.6625	66.7398
6447.4390	56.0829	66.8258
6509.0660	56.5059	66.9068
6571.2820	56.9320	66.9857
6634.0930	57.3614	67.0630
6697.5050	57.7942	67.1404
6761.5220	58.2317	67.2178
6826.1520	58.6741	67.2930
6891.3990	59.1211	67.3638
6957.2700	59.5713	67.4302
7023.7700	60.0243	67.4940
7090.9060	60.4800	67.5569
7158.6840	60.9392	67.6187
7227.1100	61.4015	67.6790
7296.1890	61.8670	67.7381
7365.9290	62.3358	67.7972
7436.3360	62.8091	67.8565
7507.4160	63.2870	67.9145
7579.1750	63.7702	67.9695
7651.6190	64.2578	68.0182
7724.7570	64.7484	68.0586
7798.5930	65.2399	68.0890
7873.1350	65.7296	68.1094
7948.3900	66.2151	68.1204
8024.3640	66.6935	68.1207
8101.0640	67.1600	68.1126
8178.4980	67.6114	68.1034
8256.6710	68.0466	68.0951
8335.5920	68.4597	68.1004
8415.2670	68.8555	68.1441
8495.7030	69.2448	68.2575
8576.9090	69.6583	68.4518
8658.8900	70.1196	68.6941
8741.6560	70.6354	68.9395
8825.2120	71.1973	69.1611
8909.5670	71.7968	69.3523
8994.7280	72.4273	69.5058
9080.7040	73.0792	69.6006
9167.5010	73.7277	69.6234
9255.1270	74.3485	69.5941
9343.5920	74.9305	69.5306
9432.9020	75.4543	69.4791
9523.0650	75.9409	69.4933
9614.0910	76.4115	69.6232
9705.9860	76.9323	69.8673
9798.7600	77.5279	70.1566
9892.4200	78.2065	70.4254
9986.9760	78.9406	70.6523
10082.4400	79.7312	70.8391
10178.8100	80.5651	70.9617
10276.1000	81.4265	70.9729
10374.3200	82.2526	70.8646
10473.4900	83.0110	70.7012
10573.6000	83.6951	70.5579
10674.6600	84.3388	70.4788
10776.7000	84.9734	70.4453
10879.7000	85.6074	70.4225
10983.7000	86.2329	70.3958
11088.6800	86.8424	70.3768
11194.6700	87.4401	70.3862
11301.6800	88.0406	70.4308
11409.7000	88.6547	70.5023
11518.7600	89.2886	70.5910
11628.8600	89.9445	70.6939
11740.0200	90.6291	70.8063
11852.2300	91.3434	70.9169
11965.5200	92.0858	71.0122
12079.8900	92.8446	71.0855
12195.3600	93.6119	71.1426
12311.9200	94.3836	71.1901
12429.6100	95.1585	71.2335
12548.4100	95.9380	71.2751
12668.3600	96.7221	71.3152
12789.4500	97.5118	71.3543
12911.6900	98.3069	71.3925
13035.1100	99.1083	71.4320
13159.7000	99.9185	71.4741
13285.4900	100.7407	71.5160
13412.4800	101.5747	71.5533
13540.6800	102.4195	71.5816
13670.1100	103.2707	71.5966
13800.7700	104.1225	71.5925
13932.6900	104.9626	71.5632
14065.8600	105.7720	71.5238
14200.3100	106.5522	71.5040
14336.0400	107.3173	71.5380
14473.0700	108.1140	71.6213
14611.4100	108.9519	71.7176
14751.0700	109.8323	71.7940
14892.0700	110.7244	71.8485
15034.4100	111.6320	71.8976
15178.1200	112.5509	71.9418
15323.2000	113.4868	71.9627
15469.6600	114.4060	71.9576
15617.5300	115.3055	71.9543
15766.8100	116.1873	71.9856
15917.5100	117.0933	72.0601
16069.6600	118.0392	72.1502
16223.2600	119.0287	72.2295
16378.3300	120.0434	72.2838
16534.8800	121.0693	72.3209
16692.9200	122.1023	72.3516
16852.4800	123.1444	72.3820
17013.5600	124.2004	72.4116
17176.1900	125.2704	72.4367
17340.3600	126.3539	72.4555
17506.1100	127.4487	72.4673
17673.4400	128.5537	72.4729
17842.3700	129.6683	72.4724
18012.9200	130.7924	72.4653
18185.0900	131.9245	72.4515
18358.9100	133.0658	72.4306
18534.3900	134.2160	72.3960
18711.5500	135.3666	72.3385
18890.4100	136.5025	72.2510
