Freq	dB	Phase
10.0000	57.2451	-124.2502
10.0956	57.7538	-124.5185
10.1921	58.1973	-126.2821
10.2895	58.5851	-128.2179
10.3879	58.9263	-130.1464
10.4871	59.2303	-131.9676
10.5874	59.5065	-133.5789
10.6886	59.7701	-135.0011
10.7908	60.0251	-136.3645
10.8939	60.2706	-137.6642
10.9980	60.5117	-138.8706
11.1031	60.7517	-140.0645
11.2093	60.9869	-141.2830
11.3164	61.2170	-142.5031
11.4246	61.4412	-143.7098
11.5338	61.6607	-144.8913
11.6440	61.8756	-146.0889
11.7553	62.0811	-147.2214
11.8677	62.2859	-148.2031
11.9811	62.4945	-148.9947
12.0957	62.7217	-149.7454
12.2113	62.9577	-150.6889
12.3280	63.1931	-151.8523
12.4458	63.4168	-153.1548
12.5648	63.6279	-154.4273
12.6849	63.8331	-155.6267
12.8061	64.0342	-156.7864
12.9285	64.2329	-157.9283
13.0521	64.4286	-159.0627
13.1769	64.6218	-160.1790
13.3028	64.8132	-161.2847
13.4300	65.0026	-162.3863
13.5583	65.1900	-163.4812
13.6879	65.3754	-164.5683
13.8188	65.5591	-165.6467
13.9509	65.7412	-166.7166
14.0842	65.9219	-167.7791
14.2188	66.1014	-168.8362
14.3547	66.2795	-169.8859
14.4919	66.4568	-170.9310
14.6305	66.6331	-171.9806
14.7703	66.8079	-173.0390
14.9115	66.9806	-174.1045
15.0540	67.1507	-175.1641
15.1979	67.3191	-176.2100
15.3432	67.4859	-177.2450
15.4898	67.6517	-178.2723
15.6379	67.8163	-179.2951
15.7874	67.9798	179.6886
15.9383	68.1423	178.6775
16.0906	68.3038	177.6702
16.2444	68.4644	176.6669
16.3997	68.6240	175.6671
16.5564	68.7827	174.6703
16.7147	68.9406	173.6763
16.8745	69.0976	172.6847
17.0358	69.2537	171.6953
17.1986	69.4089	170.7076
17.3630	69.5633	169.7217
17.5289	69.7169	168.7371
17.6965	69.8695	167.7536
17.8656	70.0213	166.7709
18.0364	70.1722	165.7894
18.2088	70.3223	164.8095
18.3829	70.4715	163.8311
18.5586	70.6199	162.8536
18.7360	70.7675	161.8759
18.9150	70.9143	160.8982
19.0958	71.0603	159.9204
19.2784	71.2054	158.9421
19.4626	71.3497	157.9634
19.6487	71.4931	156.9841
19.8365	71.6356	156.0038
20.0261	71.7772	155.0225
20.2175	71.9179	154.0399
20.4108	72.0576	153.0561
20.6058	72.1964	152.0709
20.8028	72.3342	151.0843
21.0016	72.4710	150.0962
21.2024	72.6067	149.1067
21.4050	72.7415	148.1157
21.6096	72.8752	147.1231
21.8162	73.0077	146.1287
22.0247	73.1392	145.1326
22.2353	73.2696	144.1348
22.4478	73.3988	143.1353
22.6624	73.5268	142.1341
22.8790	73.6537	141.1312
23.0977	73.7793	140.1268
23.3184	73.9037	139.1208
23.5413	74.0269	138.1134
23.7663	74.1488	137.1044
23.9935	74.2693	136.0939
24.2228	74.3886	135.0818
24.4544	74.5066	134.0684
24.6881	74.6231	133.0538
24.9241	74.7383	132.0380
25.1623	74.8521	131.0211
25.4028	74.9645	130.0033
25.6457	75.0755	128.9846
25.8908	75.1850	127.9652
26.1383	75.2930	126.9453
26.3881	75.3995	125.9248
26.6403	75.5046	124.9040
26.8950	75.6081	123.8830
27.1520	75.7101	122.8621
27.4116	75.8105	121.8414
27.6736	75.9094	120.8211
27.9381	76.0067	119.8014
28.2051	76.1025	118.7823
28.4747	76.1967	117.7642
28.7469	76.2892	116.7473
29.0217	76.3802	115.7316
29.2991	76.4696	114.7176
29.5791	76.5573	113.7053
29.8619	76.6435	112.6949
30.1473	76.7281	111.6867
30.4355	76.8110	110.6809
30.7264	76.8923	109.6779
31.0201	76.9721	108.6776
31.3166	77.0502	107.6804
31.6159	77.1268	106.6865
31.9181	77.2018	105.6960
32.2232	77.2752	104.7093
32.5312	77.3470	103.7264
32.8421	77.4173	102.7476
33.1561	77.4861	101.7732
33.4730	77.5533	100.8033
33.7929	77.6191	99.8382
34.1159	77.6833	98.8779
34.4420	77.7461	97.9229
34.7712	77.8074	96.9732
35.1036	77.8673	96.0289
35.4391	77.9258	95.0904
35.7779	77.9829	94.1578
36.1199	78.0387	93.2312
36.4651	78.0931	92.3108
36.8137	78.1463	91.3968
37.1655	78.1981	90.4892
37.5208	78.2488	89.5881
37.8794	78.2982	88.6939
38.2415	78.3464	87.8064
38.6070	78.3935	86.9259
38.9760	78.4395	86.0523
39.3486	78.4845	85.1857
39.7247	78.5283	84.3261
40.1044	78.5712	83.4735
40.4877	78.6131	82.6280
40.8747	78.6541	81.7896
41.2654	78.6942	80.9581
41.6599	78.7334	80.1335
42.0581	78.7717	79.3157
42.4601	78.8092	78.5048
42.8659	78.8460	77.7005
43.2757	78.8819	76.9029
43.6893	78.9172	76.1118
44.1069	78.9517	75.3271
44.5285	78.9855	74.5486
44.9541	79.0187	73.7764
45.3838	79.0512	73.0101
45.8176	79.0830	72.2497
46.2555	79.1143	71.4951
46.6977	79.1449	70.7461
47.1440	79.1749	70.0026
47.5947	79.2044	69.2645
48.0496	79.2332	68.5316
48.5089	79.2615	67.8038
48.9725	79.2893	67.0811
49.4406	79.3165	66.3632
49.9132	79.3431	65.6500
50.3903	79.3692	64.9414
50.8719	79.3948	64.2372
51.3582	79.4198	63.5373
51.8491	79.4443	62.8417
52.3447	79.4683	62.1501
52.8450	79.4917	61.4624
53.3501	79.5145	60.7786
53.8601	79.5368	60.0984
54.3749	79.5586	59.4219
54.8946	79.5797	58.7489
55.4193	79.6003	58.0793
55.9491	79.6203	57.4132
56.4838	79.6396	56.7503
57.0237	79.6584	56.0907
57.5688	79.6765	55.4343
58.1191	79.6939	54.7812
58.6746	79.7107	54.1313
59.2354	79.7268	53.4847
59.8016	79.7422	52.8415
60.3732	79.7569	52.2015
60.9503	79.7708	51.5651
61.5329	79.7841	50.9322
62.1210	79.7966	50.3030
62.7148	79.8083	49.6775
63.3143	79.8192	49.0559
63.9195	79.8294	48.4384
64.5304	79.8389	47.8250
65.1472	79.8475	47.2159
65.7699	79.8554	46.6114
66.3986	79.8625	46.0114
67.0333	79.8688	45.4162
67.6740	79.8744	44.8260
68.3209	79.8792	44.2408
68.9739	79.8832	43.6609
69.6332	79.8865	43.0864
70.2988	79.8890	42.5175
70.9707	79.8909	41.9541
71.6491	79.8920	41.3967
72.3339	79.8924	40.8451
73.0253	79.8922	40.2996
73.7233	79.8912	39.7602
74.4280	79.8897	39.2272
75.1394	79.8875	38.7006
75.8576	79.8846	38.1805
76.5827	79.8812	37.6671
77.3147	79.8772	37.1604
78.0537	79.8727	36.6605
78.7998	79.8676	36.1677
79.5530	79.8621	35.6819
80.3134	79.8560	35.2032
81.0811	79.8496	34.7318
81.8561	79.8427	34.2677
82.6385	79.8354	33.8108
83.4284	79.8277	33.3614
84.2258	79.8197	32.9195
85.0309	79.8114	32.4850
85.8436	79.8028	32.0580
86.6642	79.7941	31.6384
87.4925	79.7851	31.2263
88.3288	79.7759	30.8216
89.1731	79.7666	30.4242
90.0255	79.7572	30.0341
90.8860	79.7477	29.6512
91.7547	79.7382	29.2754
92.6317	79.7287	28.9065
93.5171	79.7191	28.5445
94.4110	79.7097	28.1891
95.3134	79.7003	27.8403
96.2245	79.6909	27.4979
97.1442	79.6817	27.1616
98.0728	79.6727	26.8314
99.0102	79.6638	26.5070
99.9566	79.6550	26.1883
100.9120	79.6465	25.8751
101.8766	79.6381	25.5672
102.8503	79.6300	25.2645
103.8334	79.6220	24.9666
104.8259	79.6144	24.6736
105.8279	79.6069	24.3852
106.8394	79.5998	24.1011
107.8606	79.5928	23.8213
108.8916	79.5862	23.5456
109.9324	79.5798	23.2737
110.9832	79.5737	23.0056
112.0440	79.5679	22.7410
113.1150	79.5623	22.4798
114.1962	79.5571	22.2218
115.2877	79.5521	21.9668
116.3897	79.5474	21.7147
117.5022	79.5430	21.4653
118.6253	79.5389	21.2184
119.7592	79.5350	20.9738
120.9039	79.5315	20.7314
122.0596	79.5281	20.4911
123.2263	79.5251	20.2527
124.4041	79.5223	20.0159
125.5932	79.5197	19.7807
126.7937	79.5173	19.5470
128.0056	79.5152	19.3145
129.2292	79.5132	19.0832
130.4644	79.5115	18.8530
131.7114	79.5099	18.6237
132.9704	79.5084	18.3953
134.2414	79.5071	18.1677
135.5245	79.5060	17.9409
136.8199	79.5049	17.7147
138.1277	79.5040	17.4891
139.4480	79.5031	17.2642
140.7809	79.5022	17.0399
142.1265	79.5015	16.8161
143.4850	79.5007	16.5929
144.8565	79.5000	16.3702
146.2411	79.4993	16.1481
147.6389	79.4986	15.9266
149.0501	79.4979	15.7057
150.4748	79.4972	15.4854
151.9131	79.4964	15.2657
153.3651	79.4956	15.0466
154.8311	79.4947	14.8282
156.3110	79.4938	14.6105
157.8051	79.4928	14.3935
159.3135	79.4918	14.1772
160.8362	79.4907	13.9617
162.3736	79.4894	13.7471
163.9256	79.4881	13.5333
165.4925	79.4867	13.3205
167.0743	79.4852	13.1087
168.6713	79.4836	12.8979
170.2835	79.4818	12.6883
171.9112	79.4800	12.4800
173.5544	79.4780	12.2730
175.2133	79.4759	12.0677
176.8880	79.4737	11.8642
178.5788	79.4714	11.6626
180.2857	79.4689	11.4582
182.0090	79.4656	11.2373
183.7487	79.4593	11.0597
185.5050	79.4557	10.9689
187.2782	79.4574	11.0208
189.0683	79.4790	11.0285
190.8754	79.5038	10.7919
192.6999	79.5255	10.3249
194.5418	79.5297	9.7449
196.4013	79.5216	9.2350
198.2786	79.5059	8.7862
200.1738	79.4835	8.3872
202.0872	79.4563	8.0554
204.0188	79.4267	7.8067
205.9689	79.3981	7.6383
207.9376	79.3730	7.4874
209.9252	79.3480	7.3188
211.9318	79.3224	7.1398
213.9575	79.2935	6.9936
216.0026	79.2652	6.9151
218.0672	79.2386	6.8947
220.1516	79.2161	6.9132
222.2559	79.1972	6.9479
224.3803	79.1820	7.0110
226.5250	79.1722	7.0857
228.6902	79.1668	7.1422
230.8762	79.1644	7.1724
233.0830	79.1635	7.1850
235.3109	79.1638	7.2057
237.5601	79.1667	7.2444
239.8308	79.1730	7.2940
242.1232	79.1836	7.3261
244.4375	79.1966	7.3244
246.7739	79.2112	7.3014
249.1327	79.2275	7.2444
251.5140	79.2434	7.1427
253.9181	79.2578	6.9586
256.3451	79.2627	6.7862
258.7954	79.2665	6.7424
261.2691	79.2739	6.8285
263.7664	79.2929	6.9813
266.2876	79.3221	7.0902
268.8328	79.3586	7.1611
271.4025	79.4042	7.1872
273.9966	79.4573	7.0745
276.6156	79.5105	6.7786
279.2596	79.5580	6.3127
281.9289	79.5931	5.7792
284.6237	79.6206	5.2469
287.3442	79.6403	4.6788
290.0908	79.6507	4.1017
292.8636	79.6539	3.5411
295.6629	79.6505	3.0199
298.4890	79.6451	2.4896
301.3421	79.6329	1.8816
304.2224	79.6108	1.1871
307.1303	79.5721	0.4656
310.0660	79.5186	-0.1687
313.0297	79.4549	-0.7034
316.0218	79.3817	-1.1436
319.0424	79.3009	-1.4371
322.0920	79.2182	-1.5568
325.1707	79.1379	-1.5074
328.2788	79.0655	-1.3414
331.4166	79.0000	-1.0991
334.5844	78.9431	-0.7507
337.7825	78.8994	-0.3459
341.0112	78.8660	0.0639
344.2707	78.8429	0.4992
347.5614	78.8317	0.9309
350.8835	78.8302	1.3198
354.2374	78.8365	1.6669
357.6234	78.8499	1.9663
361.0417	78.8684	2.2014
364.4927	78.8899	2.3566
367.9766	78.9108	2.4396
371.4939	78.9288	2.5216
375.0448	78.9480	2.6383
378.6296	78.9694	2.7743
382.2487	78.9949	2.9080
385.9024	79.0232	3.0221
389.5910	79.0545	3.1265
393.3149	79.0893	3.2116
397.0744	79.1270	3.2665
400.8698	79.1671	3.3008
404.7014	79.2106	3.2975
408.5697	79.2557	3.2298
412.4750	79.3006	3.0935
416.4176	79.3432	2.8987
420.3979	79.3828	2.6674
424.4163	79.4195	2.4062
428.4730	79.4527	2.1128
432.5685	79.4821	1.7898
436.7032	79.5070	1.4407
440.8774	79.5271	1.0730
445.0915	79.5424	0.6780
449.3458	79.5513	0.2499
453.6409	79.5526	-0.2188
457.9770	79.5426	-0.6817
462.3545	79.5243	-1.0848
466.7739	79.4991	-1.4507
471.2355	79.4654	-1.7486
475.7397	79.4269	-1.9228
480.2871	79.3874	-1.9648
484.8778	79.3509	-1.8881
489.5125	79.3199	-1.7205
494.1915	79.2953	-1.4647
498.9152	79.2805	-1.1165
503.6840	79.2787	-0.7524
508.4984	79.2856	-0.4218
513.3588	79.3002	-0.1187
518.2657	79.3201	0.1815
523.2195	79.3475	0.5009
528.2207	79.3826	0.8344
533.2696	79.4279	1.1504
538.3668	79.4810	1.4097
543.5128	79.5404	1.6235
548.7079	79.6064	1.7784
553.9527	79.6767	1.8451
559.2476	79.7485	1.8062
564.5931	79.8177	1.6802
569.9897	79.8828	1.5426
575.4379	79.9474	1.4238
580.9382	80.0127	1.3078
586.4910	80.0800	1.1775
592.0970	80.1485	1.0214
597.7565	80.2185	0.8569
603.4701	80.2920	0.6535
609.2383	80.3661	0.3813
615.0616	80.4396	0.0408
620.9406	80.5097	-0.3448
626.8758	80.5779	-0.7425
632.8678	80.6448	-1.1519
638.9170	80.7115	-1.5849
645.0240	80.7775	-2.0628
651.1894	80.8416	-2.5853
657.4138	80.9039	-3.1507
663.6976	80.9638	-3.7776
670.0415	81.0191	-4.4713
676.4460	81.0687	-5.2221
682.9118	81.1118	-6.0393
689.4393	81.1458	-6.9274
696.0293	81.1689	-7.8885
702.6822	81.1770	-8.8818
709.3987	81.1718	-9.8635
716.1795	81.1528	-10.8742
723.0250	81.1141	-11.8318
729.9360	81.0623	-12.6153
736.9130	81.0032	-13.2179
743.9567	80.9425	-13.6620
751.0678	80.8829	-13.9863
758.2468	80.8257	-14.1980
765.4944	80.7736	-14.2929
772.8113	80.7289	-14.2876
780.1982	80.6933	-14.1913
787.6556	80.6692	-13.9968
795.1844	80.6607	-13.7671
802.7851	80.6647	-13.5546
810.4584	80.6811	-13.3329
818.2051	80.7119	-13.1483
826.0259	80.7534	-13.0502
833.9213	80.8034	-13.0252
841.8923	80.8611	-13.0910
849.9395	80.9235	-13.2753
858.0635	80.9871	-13.6082
866.2653	81.0451	-14.0517
874.5454	81.0972	-14.4815
882.9046	81.1497	-14.8306
891.3438	81.2098	-15.1249
899.8636	81.2829	-15.6103
908.4649	81.3500	-16.4336
917.1484	81.4009	-17.6078
925.9149	81.4123	-18.7961
934.7652	81.4088	-19.7072
943.7000	81.3960	-20.4315
952.7203	81.3838	-21.0266
961.8268	81.3712	-21.5674
971.0203	81.3600	-22.0076
980.3017	81.3563	-22.3908
989.6719	81.3584	-22.8080
999.1316	81.3631	-23.2581
1008.6820	81.3704	-23.7389
1018.3230	81.3789	-24.2866
1028.0570	81.3847	-24.9337
1037.8830	81.3823	-25.6812
1047.8040	81.3657	-26.3515
1057.8190	81.3479	-26.8322
1067.9300	81.3344	-27.1163
1078.1380	81.3398	-27.3922
1088.4430	81.3499	-27.8344
1098.8470	81.3616	-28.3954
1109.3500	81.3682	-29.0253
1119.9540	81.3720	-29.6561
1130.6590	81.3736	-30.2965
1141.4660	81.3737	-30.9609
1152.3770	81.3712	-31.6690
1163.3920	81.3645	-32.4215
1174.5120	81.3524	-33.2114
1185.7380	81.3341	-34.0319
1197.0720	81.3086	-34.8767
1208.5140	81.2752	-35.7404
1220.0660	81.2331	-36.6207
1231.7270	81.1810	-37.5126
1243.5010	81.1177	-38.4430
1255.3870	81.0368	-39.3175
1267.3860	80.9461	-40.0422
1279.5000	80.8482	-40.6434
1291.7300	80.7459	-41.1205
1304.0770	80.6411	-41.4768
1316.5420	80.5358	-41.7112
1329.1260	80.4316	-41.8171
1341.8310	80.3312	-41.7838
1354.6560	80.2373	-41.6057
1367.6050	80.1534	-41.2918
1380.6770	80.0820	-40.8816
1393.8740	80.0230	-40.4009
1407.1970	79.9770	-39.8574
1420.6480	79.9432	-39.2096
1434.2270	79.9278	-38.4304
1447.9360	79.9339	-37.4654
1461.7760	79.9775	-36.5175
1475.7480	80.0418	-35.8016
1489.8540	80.1210	-35.3076
1504.0940	80.2016	-34.9305
1518.4710	80.2891	-34.5030
1532.9850	80.3883	-34.0202
1547.6380	80.5042	-33.5359
1562.4310	80.6362	-33.1448
1577.3660	80.7797	-32.8747
1592.4430	80.9320	-32.7071
1607.6640	81.0911	-32.6101
1623.0310	81.2580	-32.5710
1638.5440	81.4315	-32.6166
1654.2060	81.6082	-32.6791
1670.0180	81.7942	-32.7050
1685.9800	81.9918	-32.7777
1702.0960	82.1952	-32.7893
1718.3650	82.4189	-32.6200
1734.7900	82.6712	-32.2299
1751.3720	82.9745	-31.8276
1768.1120	83.3192	-31.7565
1785.0120	83.6939	-32.0744
1802.0740	84.0885	-32.7256
1819.2990	84.5010	-33.5837
1836.6890	84.9378	-34.5860
1854.2450	85.4073	-35.7885
1871.9680	85.9163	-37.5849
1889.8610	86.4345	-40.2065
1907.9250	86.9485	-43.5365
1926.1620	87.4478	-47.6340
1944.5730	87.9135	-52.5408
1963.1600	88.3300	-58.2242
1981.9250	88.6808	-64.6387
2000.8690	88.9517	-71.7236
2019.9940	89.1279	-79.6363
2039.3020	89.1644	-87.9698
2058.7950	89.0788	-95.9658
2078.4730	88.9001	-103.3873
2098.3400	88.6622	-110.4289
2118.3970	88.3695	-117.7254
2138.6460	87.9824	-125.5676
2159.0880	87.4690	-133.8098
2179.7250	86.7913	-141.3640
2200.5600	86.0266	-147.5162
2221.5940	85.2021	-152.4558
2242.8290	84.3614	-156.4463
2264.2660	83.5008	-159.7501
2285.9090	82.6349	-162.2013
2307.7590	81.7852	-163.9120
2329.8170	80.9564	-165.0372
2352.0870	80.1565	-165.4561
2374.5690	79.4134	-165.3953
2397.2660	78.7182	-165.3487
2420.1800	78.0500	-165.4969
2443.3130	77.3848	-165.7057
2466.6670	76.7164	-165.4578
2490.2450	76.0783	-164.5005
2514.0480	75.4921	-162.9119
2538.0780	74.9893	-161.3631
2562.3380	74.5233	-160.3264
2586.8300	74.0804	-159.7388
2611.5560	73.6259	-159.2828
2636.5180	73.1813	-158.6322
2661.7190	72.7471	-157.9506
2687.1610	72.3210	-157.2052
2712.8460	71.9069	-156.3450
2738.7760	71.5081	-155.3464
2764.9550	71.1323	-154.2715
2791.3830	70.7777	-153.2621
2818.0640	70.4375	-152.3548
2845.0010	70.1079	-151.5260
2872.1940	69.7861	-150.7407
2899.6480	69.4725	-149.9847
2927.3640	69.1657	-149.2740
2955.3450	68.8641	-148.6004
2983.5930	68.5674	-147.9574
3012.1120	68.2747	-147.3269
3040.9030	67.9884	-146.7556
3069.9690	67.7026	-146.2933
3099.3130	67.4142	-145.9594
3128.9380	67.1138	-145.6690
3158.8450	66.8063	-145.2887
3189.0390	66.4961	-144.8009
3219.5210	66.1883	-144.2434
3250.2940	65.8828	-143.6972
3281.3620	65.5759	-143.2006
3312.7270	65.2632	-142.7303
3344.3910	64.9420	-142.1406
3376.3580	64.6233	-141.3444
3408.6310	64.3137	-140.3260
3441.2120	64.0281	-139.3221
3474.1040	63.7484	-138.5296
3507.3110	63.4697	-137.9197
3540.8360	63.1785	-137.3695
3574.6800	62.8831	-136.7334
3608.8490	62.5855	-136.0264
3643.3440	62.2911	-135.3050
3678.1680	61.9960	-134.6602
3713.3260	61.6960	-134.0788
3748.8190	61.3901	-133.5569
3784.6520	61.0748	-133.1385
3820.8270	60.7438	-132.8037
3857.3480	60.3960	-132.5149
3894.2180	60.0296	-132.4192
3931.4410	59.6250	-132.6027
3969.0190	59.1676	-133.1650
4006.9570	58.6143	-133.4541
4045.2570	58.0143	-132.8826
4083.9230	57.3807	-131.8468
4122.9590	56.6980	-129.9137
4162.3680	56.0208	-126.5598
4202.1530	55.3880	-121.5882
4242.3190	54.8816	-115.6100
4282.8690	54.4848	-109.7902
4323.8070	54.1605	-104.2826
4365.1350	53.8920	-98.9107
4406.8590	53.6706	-93.5146
4448.9820	53.5003	-88.1216
4491.5070	53.3686	-82.8708
4534.4380	53.2573	-77.1868
4577.7810	53.2182	-70.7075
4621.5370	53.2737	-63.4389
4665.7110	53.4838	-56.0888
4710.3080	53.8031	-49.3484
4755.3310	54.2267	-42.6129
4800.7850	54.8093	-36.7596
4846.6730	55.4632	-32.9588
4892.9990	56.1236	-31.4561
4939.7680	56.6773	-31.4790
4986.9850	57.1323	-31.4301
5034.6520	57.5412	-31.0613
5082.7760	57.9162	-30.6154
5131.3590	58.2688	-30.0890
5180.4060	58.6075	-29.4147
5229.9230	58.9506	-28.4670
5279.9130	59.3277	-27.8501
5330.3800	59.6916	-27.9918
5381.3300	60.0274	-28.8210
5432.7670	60.2956	-29.9316
5484.6960	60.5214	-30.8994
5537.1210	60.7069	-31.9905
5590.0470	60.8331	-32.9103
5643.4790	60.9281	-33.2268
5697.4220	61.0161	-32.8361
5751.8800	61.1349	-31.9712
5806.8590	61.2862	-31.1691
5862.3630	61.4513	-30.5691
5918.3980	61.6227	-30.0656
5974.9680	61.7962	-29.4919
6032.0800	61.9836	-28.7568
6089.7370	62.1915	-27.8632
6147.9450	62.4344	-27.0898
6206.7100	62.6906	-26.6559
6266.0360	62.9530	-26.7427
6325.9290	63.1746	-26.7647
6386.3950	63.4111	-26.0778
6447.4390	63.6860	-24.6668
6509.0660	64.0597	-23.0966
6571.2820	64.5037	-22.2601
6634.0930	64.9887	-22.0570
6697.5050	65.5170	-22.5530
6761.5220	66.0648	-24.2298
6826.1520	66.5853	-27.2901
6891.3990	67.0336	-31.6036
6957.2700	67.3703	-36.4946
7023.7700	67.6173	-41.5782
7090.9060	67.7649	-47.0917
7158.6840	67.7877	-52.5550
7227.1100	67.7187	-57.5497
7296.1890	67.5677	-62.1207
7365.9290	67.3505	-66.2844
7436.3360	67.0678	-70.0809
7507.4160	66.7245	-73.6698
7579.1750	66.2907	-76.5820
7651.6190	65.8120	-77.9986
7724.7570	65.3428	-77.8688
7798.5930	64.9259	-76.3803
7873.1350	64.5959	-73.7662
7948.3900	64.3773	-70.0050
8024.3640	64.3248	-65.0952
8101.0640	64.4946	-60.4975
8178.4980	64.7998	-57.1352
8256.6710	65.2195	-54.5168
8335.5920	65.7574	-53.2203
8415.2670	66.3411	-53.7542
8495.7030	66.9278	-56.2746
8576.9090	67.4269	-60.1175
8658.8900	67.8640	-64.3963
8741.6560	68.2405	-69.2200
8825.2120	68.5551	-74.6725
8909.5670	68.7936	-80.8448
8994.7280	68.9391	-87.7351
9080.7040	68.9708	-95.2062
9167.5010	68.8775	-102.9342
9255.1270	68.6646	-110.7801
9343.5920	68.3237	-118.7625
9432.9020	67.8423	-126.4693
9523.0650	67.2467	-133.6045
9614.0910	66.5459	-140.4330
9705.9860	65.7167	-146.3732
9798.7600	64.8241	-150.8689
9892.4200	63.8994	-153.6088
9986.9760	63.0497	-155.5971
10082.4400	62.2035	-158.2691
10178.8100	61.3142	-161.8308
10276.1000	60.2895	-165.4493
10374.3200	59.1615	-167.4373
10473.4900	58.0144	-167.4378
10573.6000	56.9025	-165.8262
10674.6600	55.8641	-163.2097
10776.7000	54.8912	-159.8646
10879.7000	54.0025	-155.6473
10983.7000	53.2217	-150.8747
11088.6800	52.5420	-145.8067
11194.6700	51.9692	-139.9494
11301.6800	51.5813	-134.4682
11409.7000	51.2687	-130.5710
11518.7600	50.9872	-128.5087
11628.8600	50.5981	-127.0291
11740.0200	50.1841	-124.1846
11852.2300	49.8151	-119.6539
11965.5200	49.6043	-114.4001
12079.8900	49.5303	-110.5338
12195.3600	49.4850	-108.6721
12311.9200	49.3971	-108.3285
12429.6100	49.2141	-108.3672
12548.4100	48.9829	-108.1775
12668.3600	48.7050	-107.9643
12789.4500	48.3905	-107.9227
12911.6900	48.0125	-108.1896
13035.1100	47.5591	-109.3770
13159.7000	46.9028	-109.7153
13285.4900	46.2103	-107.2313
13412.4800	45.5600	-101.7331
13540.6800	45.1396	-94.8039
13670.1100	44.8730	-89.0642
13800.7700	44.6748	-84.7430
13932.6900	44.4730	-81.2320
14065.8600	44.2550	-77.4691
14200.3100	44.0644	-73.2073
14336.0400	43.9061	-68.7105
14473.0700	43.7858	-63.8402
14611.4100	43.7252	-58.5297
14751.0700	43.7400	-52.8074
14892.0700	43.8559	-46.9642
15034.4100	44.0643	-41.2688
15178.1200	44.3705	-35.1041
15323.2000	44.8675	-29.7971
15469.6600	45.4298	-26.9388
15617.5300	45.9863	-26.7190
