Freq	Ohm	Deg
10.0000	8.0308	28.5843
10.0956	8.0730	29.0950
10.1921	8.1154	29.5414
10.2895	8.1580	29.9511
10.3879	8.2008	30.3354
10.4871	8.2439	30.7004
10.5874	8.2872	31.0500
10.6886	8.3307	31.3872
10.7908	8.3744	31.7138
10.8939	8.4184	32.0314
10.9980	8.4626	32.3414
11.1031	8.5071	32.6447
11.2093	8.5517	32.9423
11.3164	8.5967	33.2349
11.4246	8.6418	33.5233
11.5338	8.6872	33.8079
11.6440	8.7328	34.0894
11.7553	8.7787	34.3683
11.8677	8.8248	34.6451
11.9811	8.8711	34.9203
12.0957	8.9177	35.1942
12.2113	8.9645	35.4674
12.3280	9.0116	35.7402
12.4458	9.0589	36.0131
12.5648	9.1065	36.2865
12.6849	9.1543	36.5610
12.8061	9.2024	36.8369
12.9285	9.2507	37.1148
13.0521	9.2993	37.3953
13.1769	9.3481	37.6788
13.3028	9.3972	37.9662
13.4300	9.4466	38.2580
13.5583	9.4962	38.5553
13.6879	9.5461	38.8589
13.8188	9.5962	39.1703
13.9509	9.6466	39.4911
14.0842	9.6973	39.8239
14.2188	9.7482	40.1726
14.3547	9.7994	40.5465
14.4919	9.8508	41.1429
14.6305	9.9323	41.6468
14.7703	10.0026	41.8033
14.9115	10.0553	42.1386
15.0540	10.1215	42.6703
15.1979	10.1953	43.1044
15.3432	10.2663	43.5243
15.4898	10.3412	44.1172
15.6379	10.4378	44.6639
15.7874	10.5325	45.0295
15.9383	10.6243	45.4512
16.0906	10.7242	45.9457
16.2444	10.8341	46.3421
16.3997	10.9404	46.5383
16.5564	11.0275	46.8169
16.7147	11.1226	47.2858
16.8745	11.2250	47.6933
17.0358	11.3213	48.1509
17.1986	11.4283	48.8405
17.3630	11.5635	49.5105
17.5289	11.7066	50.0284
17.6965	11.8571	50.4898
17.8656	12.0117	50.9366
18.0364	12.1783	51.2142
18.2088	12.3266	51.2333
18.3829	12.4433	51.4522
18.5586	12.5716	51.9055
18.7360	12.6981	52.4208
18.9150	12.8318	53.2188
19.0958	12.9951	55.3809
19.2784	13.4300	56.0232
19.4626	13.6386	55.1913
19.6487	13.8752	55.4453
19.8365	14.1121	55.5073
20.0261	14.3481	54.3757
20.2175	14.3300	54.4838
20.4108	14.5327	56.1393
20.6058	14.7664	56.9057
20.8028	15.0252	57.4790
21.0016	15.2834	58.0409
21.2024	15.5701	58.6885
21.4050	15.8794	59.2554
21.6096	16.2054	59.7037
21.8162	16.5328	60.2502
22.0247	16.9074	60.7169
22.2353	17.2722	60.9025
22.4478	17.6204	61.2185
22.6624	17.9874	61.7499
22.8790	18.3820	62.3808
23.0977	18.8107	63.0890
23.3184	19.2777	64.1606
23.5413	19.8809	65.1046
23.7663	20.5040	65.6477
23.9935	21.1789	66.1704
24.2228	21.8954	66.6922
24.4544	22.6966	66.9174
24.6881	23.4794	66.7030
24.9241	24.2230	66.6941
25.1623	25.0139	67.0755
25.4028	25.8853	67.6090
25.6457	26.8464	68.3325
25.8908	27.9616	69.2194
26.1383	29.2533	70.1802
26.3881	30.7941	70.7291
26.6403	32.4247	70.9364
26.8950	34.2577	71.2265
27.1520	36.3329	71.3128
27.4116	38.6684	70.2010
27.6736	40.7166	69.2471
27.9381	43.1813	69.3283
28.2051	46.0030	69.0753
28.4747	49.1312	69.1083
28.7469	52.9680	70.1752
29.0217	58.2449	70.5735
29.2991	64.3836	69.6448
29.5791	71.8399	68.6244
29.8619	81.4740	65.4112
30.1473	91.8256	58.6069
30.4355	101.6605	51.1990
30.7264	112.8514	42.0423
31.0201	122.0626	28.8749
31.3166	126.8346	15.0214
31.6159	128.3904	2.5589
31.9181	127.9070	-11.2616
32.2232	121.7131	-25.3406
32.5312	112.9889	-36.5644
32.8421	103.2566	-45.8263
33.1561	93.2726	-53.4812
33.4730	83.4767	-57.9655
33.7929	76.0673	-61.0144
34.1159	69.1823	-64.2382
34.4420	63.2806	-66.5264
34.7712	58.1451	-68.6662
35.1036	53.5544	-71.6514
35.4391	48.6922	-73.5862
35.7779	44.7635	-73.8754
36.1199	41.3035	-74.3144
36.4651	38.2033	-74.2472
36.8137	35.5328	-73.3461
37.1655	33.3582	-71.5592
37.5208	31.7984	-70.6157
37.8794	30.2055	-70.3744
38.2415	28.8621	-69.8340
38.6070	27.6293	-69.9187
38.9760	26.3889	-70.7472
39.3486	24.9745	-70.6125
39.7247	23.8633	-69.5643
40.1044	22.8317	-68.8737
40.4877	21.8982	-68.1147
40.8747	21.0253	-67.1346
41.2654	20.2723	-65.7610
41.6599	19.6597	-64.5632
42.0581	19.0959	-63.7100
42.4601	18.5756	-62.8867
42.8659	18.1081	-62.3287
43.2757	17.6284	-62.1755
43.6893	17.1069	-61.8042
44.1069	16.6253	-61.0967
44.5285	16.1674	-60.3006
44.9541	15.7469	-59.3086
45.3838	15.3761	-58.1857
45.8176	15.0579	-57.1571
46.2555	14.7634	-56.2517
46.6977	14.4971	-55.4373
47.1440	14.2421	-54.8206
47.5947	13.9812	-54.2956
48.0496	13.7162	-53.6009
48.5089	13.4765	-52.8085
48.9725	13.2462	-52.0764
49.4406	13.0232	-51.2066
49.9132	12.8295	-50.2218
50.3903	12.6590	-49.2572
50.8719	12.5121	-48.3574
51.3582	12.3790	-47.5101
51.8491	12.2655	-46.7253
52.3447	12.1635	-46.2056
52.8450	12.0438	-45.7417
53.3501	11.9327	-45.0600
53.8601	11.8470	-44.5163
54.3749	11.7541	-44.3757
54.8946	11.6267	-44.1336
55.4193	11.5135	-43.6536
55.9491	11.4058	-43.3502
56.4838	11.2817	-42.9601
57.0237	11.1766	-42.3500
57.5688	11.0920	-42.0058
58.1191	10.9890	-42.0032
58.6746	10.8589	-41.9622
59.2354	10.7178	-41.7038
59.8016	10.5770	-41.2967
60.3732	10.4368	-40.7067
60.9503	10.3120	-39.8113
61.5329	10.2228	-38.8027
62.1210	10.1626	-38.2394
62.7148	10.0767	-37.8118
63.3143	10.0057	-37.1812
63.9195	9.9432	-36.8251
64.5304	9.8598	-36.6012
65.1472	9.7674	-36.0688
65.7699	9.6956	-35.4813
66.3986	9.6193	-35.0138
67.0333	9.5446	-34.4624
67.6740	9.4754	-33.8513
68.3209	9.4131	-33.1694
68.9739	9.3646	-32.5147
69.6332	9.3203	-31.9731
70.2988	9.2775	-31.4956
70.9707	9.2342	-31.0777
71.6491	9.1872	-30.6862
72.3339	9.1374	-30.2349
73.0253	9.0917	-29.7536
73.7233	9.0465	-29.2758
74.4280	9.0044	-28.7928
75.1394	8.9631	-28.3015
75.8576	8.9256	-27.7788
76.5827	8.8930	-27.2730
77.3147	8.8628	-26.8158
78.0537	8.8329	-26.3705
78.7998	8.8056	-25.9564
79.5530	8.7765	-25.6086
80.3134	8.7430	-25.2337
81.0811	8.7114	-24.8178
81.8561	8.6800	-24.3994
82.6385	8.6501	-23.9668
83.4284	8.6216	-23.5168
84.2258	8.5960	-23.0373
85.0309	8.5754	-22.5736
85.8436	8.5564	-22.1538
86.6642	8.5383	-21.7601
87.4925	8.5202	-21.3852
88.3288	8.5023	-21.0480
89.1731	8.4809	-20.7044
90.0255	8.4608	-20.3339
90.8860	8.4404	-19.9578
91.7547	8.4217	-19.5734
92.6317	8.4033	-19.1737
93.5171	8.3885	-18.7846
94.4110	8.3734	-18.4386
95.3134	8.3572	-18.0961
96.2245	8.3406	-17.7524
97.1442	8.3231	-17.4468
98.0728	8.2989	-16.9490
99.0102	8.2945	-16.3643
99.9566	8.2930	-15.9493
100.9120	8.2926	-15.5686
101.8766	8.2945	-15.1873
102.8503	8.3015	-15.0075
103.8334	8.2904	-14.8894
104.8259	8.2789	-14.6062
105.8279	8.2686	-14.3065
106.8394	8.2583	-13.9889
107.8606	8.2506	-13.6735
108.8916	8.2425	-13.3779
109.9324	8.2348	-13.0780
110.9832	8.2275	-12.7777
112.0440	8.2210	-12.5006
113.1150	8.2122	-12.2108
114.1962	8.2057	-11.8959
115.2877	8.1999	-11.6031
116.3897	8.1937	-11.3116
117.5022	8.1883	-11.0061
118.6253	8.1843	-10.7120
119.7592	8.1800	-10.4243
120.9039	8.1768	-10.1343
122.0596	8.1739	-9.8607
123.2263	8.1707	-9.5940
124.4041	8.1674	-9.3299
125.5932	8.1638	-9.0668
126.7937	8.1602	-8.7976
128.0056	8.1570	-8.5223
129.2292	8.1545	-8.2588
130.4644	8.1509	-7.9739
131.7114	8.1506	-7.6817
132.9704	8.1502	-7.4212
134.2414	8.1498	-7.1686
135.5245	8.1491	-6.9081
136.8199	8.1498	-6.6693
138.1277	8.1481	-6.4384
139.4480	8.1470	-6.1833
140.7809	8.1463	-5.9281
142.1265	8.1463	-5.6801
143.4850	8.1459	-5.4369
144.8565	8.1459	-5.1948
146.2411	8.1456	-4.9501
147.6389	8.1459	-4.7027
149.0501	8.1463	-4.4535
150.4748	8.1477	-4.2092
151.9131	8.1488	-3.9763
153.3651	8.1499	-3.7425
154.8311	8.1509	-3.5068
156.3110	8.1523	-3.2778
157.8051	8.1531	-3.0489
159.3135	8.1541	-2.8072
160.8362	8.1559	-2.5624
162.3736	8.1584	-2.3310
163.9256	8.1602	-2.1010
165.4925	8.1627	-1.8599
167.0743	8.1660	-1.6299
168.6713	8.1689	-1.4110
170.2835	8.1714	-1.1869
171.9112	8.1743	-0.9572
173.5544	8.1775	-0.7341
175.2133	8.1804	-0.5144
176.8880	8.1833	-0.2883
178.5788	8.1865	-0.0612
180.2857	8.1897	0.1670
182.0090	8.1934	0.4025
183.7487	8.1977	0.6443
185.5050	8.2031	0.8788
187.2782	8.2086	1.1081
189.0683	8.2148	1.3348
190.8754	8.2209	1.5530
192.6999	8.2271	1.7721
194.5418	8.2337	1.9893
196.4013	8.2403	2.2016
198.2786	8.2469	2.4034
200.1738	8.2524	2.6122
202.0872	8.2586	2.8383
204.0188	8.2656	3.0628
205.9689	8.2730	3.2878
207.9376	8.2811	3.5274
209.9252	8.2915	3.7603
211.9318	8.3022	3.9625
213.9575	8.3123	4.1645
216.0026	8.3234	4.3578
218.0672	8.3335	4.5313
220.1516	8.3429	4.7143
222.2559	8.3527	4.9016
224.3803	8.3624	5.0778
226.5250	8.3715	5.2583
228.6902	8.3813	5.4456
230.8762	8.3915	5.6142
233.0830	8.4007	5.7761
235.3109	8.4098	5.9417
237.5601	8.4186	6.1049
239.8308	8.4274	6.2594
242.1232	8.4350	6.4118
244.4375	8.4427	6.5630
246.7739	8.4492	6.7133
249.1327	8.4558	6.8629
251.5140	8.4612	7.0031
253.9181	8.4654	7.1452
256.3451	8.4685	7.2978
258.7954	8.4712	7.4592
261.2691	8.4731	7.6311
263.7664	8.4751	7.8256
266.2876	8.4782	8.0232
268.8328	8.4809	8.2205
271.4025	8.4840	8.4400
273.9966	8.4887	8.6762
276.6156	8.4953	8.9006
279.2596	8.5019	9.1203
281.9289	8.5100	9.3344
284.6237	8.5178	9.5296
287.3442	8.5250	9.7208
290.0908	8.5315	9.9233
292.8636	8.5388	10.1202
295.6629	8.5442	10.3370
298.4890	8.5522	10.5713
301.3421	8.5599	10.7970
304.2224	8.5688	11.0319
307.1303	8.5780	11.2851
310.0660	8.5904	11.5386
313.0297	8.6032	11.7763
316.0218	8.6176	12.0028
319.0424	8.6317	12.2214
322.0920	8.6469	12.4344
325.1707	8.6619	12.6185
328.2788	8.6749	12.8145
331.4166	8.6891	13.0400
334.5844	8.7050	13.2616
337.7825	8.7217	13.4695
341.0112	8.7390	13.6740
344.2707	8.7574	13.8607
347.5614	8.7752	14.0171
350.8835	8.7914	14.1671
354.2374	8.8068	14.3259
357.6234	8.8223	14.4863
361.0417	8.8379	14.6155
364.4927	8.8502	14.7275
367.9766	8.8609	14.8460
371.4939	8.8691	14.9654
375.0448	8.8753	15.0939
378.6296	8.8790	15.2612
382.2487	8.8840	15.4616
385.9024	8.8890	15.6747
389.5910	8.8952	15.9113
393.3149	8.9031	16.1577
397.0744	8.9127	16.3832
400.8698	8.9206	16.6240
404.7014	8.9315	16.8868
408.5697	8.9428	17.1384
412.4750	8.9550	17.4041
416.4176	8.9689	17.6890
420.3979	8.9859	17.9577
424.4163	9.0024	18.2061
428.4730	9.0195	18.4652
432.5685	9.0374	18.7270
436.7032	9.0559	18.9784
440.8774	9.0732	19.2473
445.0915	9.0913	19.6199
449.3458	9.1193	20.0502
453.6409	9.1522	20.8938
457.9770	9.2526	21.4976
462.3545	9.3423	20.9104
466.7739	9.3608	20.2445
471.2355	9.3698	20.0526
475.7397	9.3726	19.4837
480.2871	9.3071	19.1982
484.8778	9.2566	20.0933
489.5125	9.2764	20.9488
494.1915	9.2945	21.2841
498.9152	9.3149	21.6047
503.6840	9.3364	21.9030
508.4984	9.3594	22.1908
513.3588	9.3833	22.4734
518.2657	9.4093	22.7374
523.2195	9.4349	22.9766
528.2207	9.4602	23.2104
533.2696	9.4852	23.4411
538.3668	9.5098	23.6581
543.5128	9.5321	23.8971
548.7079	9.5565	24.1699
553.9527	9.5825	24.4341
559.2476	9.6086	24.7097
564.5931	9.6373	25.0218
569.9897	9.6711	25.3098
575.4379	9.7046	25.5634
580.9382	9.7393	25.8237
586.4910	9.7758	26.0753
592.0970	9.8136	26.2945
597.7565	9.8501	26.4650
603.4701	9.8822	26.6399
609.2383	9.9141	26.8469
615.0616	9.9457	27.0579
620.9406	9.9764	27.3032
626.8758	10.0106	27.6004
632.8678	10.0507	27.8657
638.9170	10.0901	28.0797
645.0240	10.1292	28.2936
651.1894	10.1687	28.5030
657.4138	10.2079	28.6977
663.6976	10.2458	28.8775
670.0415	10.2812	29.0881
676.4460	10.3190	29.3412
682.9118	10.3600	29.5627
689.4393	10.3985	29.7710
696.0293	10.4378	30.0242
702.6822	10.4808	30.2731
709.3987	10.5237	30.5015
716.1795	10.5669	30.7537
723.0250	10.6134	31.0029
729.9360	10.6598	31.2198
736.9130	10.7040	31.4669
743.9567	10.7518	31.7422
751.0678	10.8000	32.0550
758.2468	10.8555	32.4107
765.4944	10.9165	32.7911
772.8113	10.9884	33.1563
780.1982	11.0644	33.4954
787.6556	11.1492	33.8189
795.1844	11.2388	34.1059
802.7851	11.3352	34.3524
810.4584	11.4338	34.5362
818.2051	11.5320	34.7886
826.0259	11.6457	35.1449
833.9213	11.7789	35.5257
841.8923	11.9385	35.8871
849.9395	12.1289	36.1159
858.0635	12.3485	35.9319
866.2653	12.5628	35.1308
874.5454	12.7384	33.7340
882.9046	12.8381	31.9171
891.3438	12.8449	30.0744
899.8636	12.7751	28.5453
908.4649	12.6576	27.3175
917.1484	12.4934	26.4787
925.9149	12.3184	26.1929
934.7652	12.1591	26.2559
943.7000	12.0162	26.4064
952.7203	11.8760	26.7415
961.8268	11.7604	27.3199
971.0203	11.6695	27.8975
980.3017	11.5879	28.5072
989.6719	11.5253	29.1957
999.1316	11.4757	29.9524
1008.6820	11.4487	30.7721
1018.3230	11.4404	31.5978
1028.0570	11.4549	32.3003
1037.8830	11.4708	32.8769
1047.8040	11.4929	33.4540
1057.8190	11.5201	34.0101
1067.9300	11.5523	34.5510
1078.1380	11.5890	35.0823
1088.4430	11.6307	35.6249
1098.8470	11.6806	36.1505
1109.3500	11.7352	36.6364
1119.9540	11.7947	37.0788
1130.6590	11.8556	37.4815
1141.4660	11.9187	37.8396
1152.3770	11.9794	38.1287
1163.3920	12.0331	38.4347
1174.5120	12.0881	38.7982
1185.7380	12.1452	39.1782
1197.0720	12.2052	39.5856
1208.5140	12.2713	40.0305
1220.0660	12.3477	40.4196
1231.7270	12.4226	40.7471
1243.5010	12.4999	41.0418
1255.3870	12.5725	41.3544
1267.3860	12.6528	41.6562
1279.5000	12.7279	41.8907
1291.7300	12.7998	42.1220
1304.0770	12.8654	42.4000
1316.5420	12.9332	42.7494
1329.1260	13.0024	43.1698
1341.8310	13.0784	44.0284
1354.6560	13.2356	44.5250
1367.6050	13.3306	45.3525
1380.6770	13.5837	46.3696
1393.8740	13.8472	45.5177
1407.1970	13.9483	44.0680
1420.6480	13.9660	43.7479
1434.2270	14.0460	43.1378
1447.9360	13.9649	42.3368
1461.7760	13.8721	43.4117
1475.7480	13.9517	44.7719
1489.8540	14.0459	45.3875
1504.0940	14.1631	45.9383
1518.4710	14.2952	46.3727
1532.9850	14.4381	46.7183
1547.6380	14.5887	47.2184
1562.4310	14.8001	47.2231
1577.3660	14.9347	46.9277
1592.4430	15.0862	46.7771
1607.6640	15.2040	46.4194
1623.0310	15.2995	45.9031
1638.5440	15.3201	46.0373
1654.2060	15.4471	46.6068
1670.0180	15.5870	46.8387
1685.9800	15.7696	46.8520
1702.0960	15.9466	46.2745
1718.3650	16.0689	45.1597
1734.7900	16.0921	43.8851
1751.3720	16.0341	42.7818
1768.1120	15.9044	41.9235
1785.0120	15.7155	41.7411
1802.0740	15.5595	42.2718
1819.2990	15.4535	42.8863
1836.6890	15.3544	43.8579
1854.2450	15.3550	44.9455
1871.9680	15.3730	45.7729
1889.8610	15.4313	46.5855
1907.9250	15.5126	47.1846
1926.1620	15.6004	47.3327
1944.5730	15.6179	47.8529
1963.1600	15.7258	48.6478
1981.9250	15.8244	49.0385
2000.8690	15.9260	49.5097
2019.9940	16.0442	50.0850
2039.3020	16.1994	50.3060
2058.7950	16.3018	50.3493
2078.4730	16.4108	50.5221
2098.3400	16.5005	50.7307
2118.3970	16.6046	50.9436
2138.6460	16.6890	51.1634
2159.0880	16.7874	51.4291
2179.7250	16.8738	51.7626
2200.5600	16.9876	52.1446
2221.5940	17.1012	52.3870
2242.8290	17.2095	52.6780
2264.2660	17.3317	52.9941
2285.9090	17.4567	53.2385
2307.7590	17.5805	53.4645
2329.8170	17.7056	53.7349
2352.0870	17.8443	53.9493
2374.5690	17.9749	54.0429
2397.2660	18.0931	54.1103
2420.1800	18.1981	54.2462
2443.3130	18.3056	54.4727
2466.6670	18.4185	54.7511
2490.2450	18.5433	55.0870
2514.0480	18.6890	55.3405
2538.0780	18.8292	55.4666
2562.3380	18.9624	55.5797
2586.8300	19.0914	55.6967
2611.5560	19.2167	55.7932
2636.5180	19.3330	55.8613
2661.7190	19.4357	56.0099
2687.1610	19.5467	56.2505
2712.8460	19.6640	56.4924
2738.7760	19.7853	56.7629
2764.9550	19.9179	57.0861
2791.3830	20.0693	57.3648
2818.0640	20.2225	57.5614
2845.0010	20.3764	57.7352
2872.1940	20.5311	57.8840
2899.6480	20.6845	57.9814
2927.3640	20.8284	58.0153
2955.3450	20.9539	58.0911
2983.5930	21.0803	58.2456
3012.1120	21.2071	58.4249
3040.9030	21.3365	58.6612
3069.9690	21.4787	58.9599
3099.3130	21.6410	59.2163
3128.9380	21.8055	59.3932
3158.8450	21.9710	59.5402
3189.0390	22.1359	59.6267
3219.5210	22.2879	59.6540
3250.2940	22.4221	59.7306
3281.3620	22.5565	59.8859
3312.7270	22.6925	60.0740
3344.3910	22.8326	60.3204
3376.3580	22.9878	60.6265
3408.6310	23.1647	60.8835
3441.2120	23.3429	61.0662
3474.1040	23.5237	61.2312
3507.3110	23.7057	61.3714
3540.8360	23.8873	61.4618
3574.6800	24.0582	61.4919
3608.8490	24.2097	61.5648
3643.3440	24.3628	61.7108
3678.1680	24.5163	61.8827
3713.3260	24.6737	62.1118
3748.8190	24.8458	62.4068
3784.6520	25.0432	62.6540
3820.8270	25.2409	62.8230
3857.3480	25.4418	62.9767
3894.2180	25.6439	63.1049
3931.4410	25.8459	63.1795
3969.0190	26.0349	63.1920
4006.9570	26.2028	63.2504
4045.2570	26.3719	63.3879
4083.9230	26.5432	63.5509
4122.9590	26.7182	63.7680
4162.3680	26.9099	64.0490
4202.1530	27.1279	64.2846
4242.3190	27.3483	64.4428
4282.8690	27.5720	64.5744
4323.8070	27.7957	64.6723
4365.1350	28.0167	64.7192
4406.8590	28.2240	64.6977
4448.9820	28.4036	64.7158
4491.5070	28.5823	64.8185
4534.4380	28.7603	64.9507
4577.7810	28.9402	65.1407
4621.5370	29.1348	65.4077
4665.7110	29.3588	65.6441
4710.3080	29.5855	65.8115
4755.3310	29.8174	65.9695
4800.7850	30.0545	66.1050
4846.6730	30.2949	66.1784
4892.9990	30.5232	66.0382
4939.7680	30.6616	66.1004
4986.9850	30.8665	66.4066
5034.6520	31.0745	66.5916
5082.7760	31.2851	66.8123
5131.3590	31.5083	67.2370
5180.4060	31.8277	67.4750
5229.9230	32.0856	67.4692
5279.9130	32.3422	67.5908
5330.3800	32.6041	67.7193
5381.3300	32.8712	67.7918
5432.7670	33.1229	67.7786
5484.6960	33.3415	67.8183
5537.1210	33.5656	67.9497
5590.0470	33.7915	68.1025
5643.4790	34.0231	68.3132
5697.4220	34.2764	68.5938
5751.8800	34.5667	68.8279
5806.8590	34.8602	68.9721
5862.3630	35.1560	69.0861
5918.3980	35.4510	69.1453
5974.9680	35.7299	69.1296
6032.0800	35.9736	69.1522
6089.7370	36.2168	69.2723
6147.9450	36.4652	69.4249
6206.7100	36.7188	69.6287
6266.0360	36.9953	69.9023
6325.9290	37.3104	70.1309
6386.3950	37.6286	70.2699
6447.4390	37.9463	70.3960
6509.0660	38.2695	70.5060
6571.2820	38.5920	70.5616
6634.0930	38.8981	70.5476
6697.5050	39.1677	70.5790
6761.5220	39.4415	70.6987
6826.1520	39.7179	70.8425
6891.3990	40.0004	71.0463
6957.2700	40.3100	71.3191
7023.7700	40.6618	71.5426
7090.9060	41.0171	71.6772
7158.6840	41.3735	71.7915
7227.1100	41.7323	71.8877
7296.1890	42.0910	71.9375
7365.9290	42.4337	71.9098
7436.3360	42.7327	71.9244
7507.4160	43.0365	72.0365
7579.1750	43.3451	72.1696
7651.6190	43.6586	72.3583
7724.7570	44.0012	72.6234
7798.5930	44.3939	72.8340
7873.1350	44.7883	72.9355
7948.3900	45.1768	73.0089
8024.3640	45.5622	73.0604
8101.0640	45.9377	73.0668
8178.4980	46.2877	73.0203
8256.6710	46.5915	73.0404
8335.5920	46.9033	73.1641
8415.2670	47.2209	73.3232
8495.7030	47.5529	73.5378
8576.9090	47.9148	73.8167
8658.8900	48.3293	74.0596
8741.6560	48.7535	74.2169
8825.2120	49.1827	74.3454
8909.5670	49.6143	74.4584
8994.7280	50.0523	74.5199
9080.7040	50.4681	74.4903
9167.5010	50.8293	74.5112
9255.1270	51.1991	74.6323
9343.5920	51.5736	74.7713
9432.9020	51.9542	74.9659
9523.0650	52.3678	75.2431
9614.0910	52.8456	75.4590
9705.9860	53.3187	75.5319
9798.7600	53.7603	75.6354
9892.4200	54.2318	75.7106
9986.9760	54.6528	75.7556
10082.4400	55.0762	75.8950
10178.8100	55.5131	76.0974
10276.1000	55.9928	76.2661
10374.3200	56.4534	76.4651
10473.4900	56.9819	76.6877
10573.6000	57.5169	76.8177
10674.6600	58.0566	76.9285
10776.7000	58.6030	77.0114
10879.7000	59.1468	77.0253
10983.7000	59.6535	76.9646
11088.6800	60.0982	76.9695
11194.6700	60.5523	77.0687
11301.6800	61.0064	77.1950
11409.7000	61.4721	77.3936
11518.7600	61.9832	77.6739
11628.8600	62.5715	77.8947
11740.0200	63.1607	78.0185
11852.2300	63.7588	78.1163
11965.5200	64.3552	78.1512
12079.8900	64.9202	78.1065
12195.3600	65.4158	78.1099
12311.9200	65.9155	78.2206
12429.6100	66.4261	78.3633
12548.4100	66.9479	78.5651
12668.3600	67.5187	78.8489
12789.4500	68.1735	79.0747
12911.6900	68.8308	79.1669
13035.1100	69.4575	79.2933
13159.7000	70.1354	79.4348
13285.4900	70.8108	79.4724
13412.4800	71.4476	79.4397
13540.6800	72.0132	79.5027
13670.1100	72.6241	79.7143
13800.7700	73.3005	79.8936
13932.6900	73.9833	80.0098
14065.8600	74.6724	80.1185
14200.3100	75.3680	80.2227
14336.0400	76.0700	80.3233
14473.0700	76.7786	80.4212
14611.4100	77.4938	80.5166
14751.0700	78.2156	80.6098
14892.0700	78.9441	80.7011
15034.4100	79.6795	80.7906
15178.1200	80.4217	80.8784
15323.2000	81.1708	80.9647
15469.6600	81.9269	81.0494
15617.5300	82.6900	81.1328
15766.8100	83.4602	81.2148
15917.5100	84.2376	81.2955
16069.6600	85.0223	81.3750
16223.2600	85.8142	81.4533
16378.3300	86.6136	81.5304
16534.8800	87.4203	81.6064
16692.9200	88.2346	81.6814
16852.4800	89.0565	81.7553
17013.5600	89.8860	81.8282
17176.1900	90.7233	81.9002
17340.3600	91.5684	81.9711
17506.1100	92.4213	82.0412
17673.4400	93.2822	82.1103
17842.3700	94.1511	82.1786
18012.9200	95.0281	82.2459
18185.0900	95.9132	82.3125
18358.9100	96.8066	82.3782
18534.3900	97.7083	82.4431
18711.5500	98.6185	82.5072
18890.4100	99.5371	82.5705
19070.9700	100.4642	82.6331
19253.2600	101.4000	82.6949
19437.2900	102.3445	82.7560
19623.0800	103.2978	82.8163
19810.6400	104.2600	82.8760
20000.0000	105.2312	82.9350