Freq	Ohm	Deg
10.0000	4.6349	32.2349
10.0956	4.6365	33.1719
10.1921	4.6640	33.5989
10.2895	4.6853	34.2134
10.3879	4.7208	34.8194
10.4871	4.7475	35.2440
10.5874	4.7777	35.8015
10.6886	4.8092	36.3543
10.7907	4.8446	36.8537
10.8939	4.8790	37.2374
10.9980	4.9101	37.7458
11.1031	4.9498	38.2514
11.2093	4.9871	38.5942
11.3164	5.0228	38.9418
11.4246	5.0573	39.3733
11.5338	5.0972	39.6356
11.6440	5.1236	39.8897
11.7553	5.1534	40.4584
11.8677	5.1907	41.0419
11.9811	5.2308	41.5691
12.0956	5.2738	42.1294
12.2113	5.3226	42.7006
12.3280	5.3768	43.1559
12.4458	5.4309	43.4044
12.5648	5.4770	43.7471
12.6849	5.5323	44.0469
12.8061	5.5774	44.2472
12.9285	5.6251	44.3628
13.0521	5.6542	44.7922
13.1769	5.7088	45.3601
13.3028	5.7542	45.6115
13.4300	5.7981	46.0045
13.5583	5.8428	46.6515
13.6879	5.9050	47.2619
13.8188	5.9641	47.7431
13.9509	6.0307	48.3396
14.0842	6.1064	48.8047
14.2188	6.1817	49.0263
14.3547	6.2488	49.1640
14.4919	6.3102	49.2827
14.6305	6.3595	49.7300
14.7703	6.4288	50.3569
14.9115	6.4984	50.9426
15.0540	6.5836	51.4359
15.1979	6.6611	51.9259
15.3432	6.7554	52.4727
15.4898	6.8497	52.8524
15.6379	6.9477	53.1691
15.7874	7.0427	53.4562
15.9383	7.1411	53.6741
16.0906	7.2310	53.7875
16.2444	7.3124	54.0972
16.3997	7.4019	54.6062
16.5564	7.4987	55.2022
16.7147	7.6098	55.7985
16.8745	7.7276	56.3298
17.0358	7.8534	56.9128
17.1986	7.9946	57.3852
17.3630	8.1350	57.7313
17.5289	8.2804	58.1193
17.6965	8.4342	58.3338
17.8656	8.5753	58.4259
18.0364	8.7096	58.7672
18.2088	8.8578	59.3050
18.3829	9.0187	59.8673
18.5586	9.1938	60.4358
18.7360	9.3820	61.0384
18.9150	9.5905	61.6728
19.0958	9.8209	62.1499
19.2784	10.0567	62.4878
19.4626	10.3014	62.9739
19.6487	10.5816	63.2829
19.8365	10.8554	63.0361
20.0261	11.0864	62.9792
20.2175	11.3375	63.3561
20.4107	11.6036	63.8555
20.6058	11.8999	64.4824
20.8028	12.2252	65.4126
21.0016	12.6349	66.2816
21.2024	13.0750	66.7818
21.4050	13.5538	67.2812
21.6096	14.0892	67.5342
21.8162	14.6444	67.3850
22.0247	15.2034	66.9175
22.2352	15.7284	66.6714
22.4478	16.3072	66.6593
22.6623	16.8948	66.7350
22.8790	17.5443	67.4407
23.0976	18.3520	68.5060
23.3184	19.3414	68.9126
23.5413	20.3634	69.3620
23.7663	21.6625	69.6905
23.9935	23.0485	69.1170
24.2228	24.5367	68.7910
24.4544	26.3113	68.5145
24.6881	28.3777	66.2720
24.9241	30.1076	63.9813
25.1623	32.2085	63.1770
25.4028	34.6901	61.9306
25.6457	37.5152	60.5222
25.8908	40.9155	59.7931
26.1383	45.5594	57.8518
26.3881	50.8528	53.5537
26.6403	56.9634	46.3210
26.8950	62.5485	35.6523
27.1520	66.8566	23.2195
27.4116	69.3188	10.0511
27.6736	69.8477	-3.5560
27.9381	68.0428	-16.5724
28.2051	64.7972	-28.0131
28.4747	60.6000	-38.3041
28.7469	55.7828	-47.4116
29.0217	50.7356	-55.6601
29.2991	45.3977	-61.8837
29.5791	40.7298	-65.7251
29.8619	36.6673	-68.7687
30.1473	33.0440	-71.0236
30.4355	29.8751	-71.7566
30.7264	27.3473	-71.0941
31.0201	25.4193	-70.9154
31.3166	23.6380	-70.8618
31.6159	22.2258	-70.5846
31.9181	20.9532	-71.0065
32.2232	19.7706	-72.2018
32.5312	18.4859	-72.7809
32.8421	17.4145	-72.5045
33.1561	16.4024	-72.1543
33.4730	15.5289	-71.3514
33.7929	14.7566	-70.4670
34.1159	14.0798	-69.2025
34.4420	13.5414	-68.1076
34.7712	13.0425	-67.4585
35.1036	12.5906	-66.9320
35.4391	12.1638	-66.6702
35.7779	11.7446	-66.8028
36.1199	11.2875	-66.6509
36.4651	10.8787	-66.0372
36.8137	10.4917	-65.4415
37.1655	10.1301	-64.6845
37.5208	9.7996	-63.8583
37.8794	9.4900	-62.9535
38.2415	9.2081	-61.6826
38.6070	8.9846	-60.4432
38.9760	8.7790	-59.5631
39.3486	8.5873	-58.7365
39.7247	8.4143	-58.1843
40.1044	8.2298	-57.9719
40.4877	8.0291	-57.5741
40.8747	7.8394	-56.9668
41.2654	7.6531	-56.3349
41.6599	7.4732	-55.4947
42.0581	7.3126	-54.6382
42.4601	7.1533	-53.6988
42.8659	7.0151	-52.4755
43.2756	6.9027	-51.3552
43.6893	6.7999	-50.5043
44.1069	6.6994	-49.7134
44.5285	6.6076	-49.0736
44.9541	6.5083	-48.6500
45.3838	6.3997	-48.0875
45.8176	6.2959	-47.2949
46.2555	6.2004	-46.4430
46.6977	6.1114	-45.6227
47.1440	6.0255	-44.7484
47.5946	5.9487	-43.7853
48.0496	5.8816	-42.8753
48.5089	5.8191	-42.0712
48.9725	5.7587	-41.2627
49.4406	5.7053	-40.5177
49.9132	5.6512	-39.9698
50.3903	5.5901	-39.3922
50.8719	5.5312	-38.6758
51.3582	5.4758	-37.9767
51.8491	5.4198	-37.2520
52.3447	5.3679	-36.4550
52.8450	5.3194	-35.6201
53.3501	5.2764	-34.7316
53.8601	5.2405	-33.8668
54.3749	5.2089	-33.1153
54.8946	5.1775	-32.4271
55.4193	5.1477	-31.7574
55.9491	5.1189	-31.1893
56.4838	5.0857	-30.6483
57.0237	5.0520	-30.0193
57.5688	5.0200	-29.3312
58.1191	4.9907	-28.6370
58.6746	4.9627	-27.9254
59.2354	4.9381	-27.1647
59.8016	4.9183	-26.4400
60.3732	4.9002	-25.8100
60.9503	4.8816	-25.2383
61.5329	4.8621	-24.6668
62.1210	4.8428	-24.1021
62.7148	4.8223	-23.5065
63.3143	4.8038	-22.8356
63.9195	4.7889	-22.1815
64.5304	4.7749	-21.5697
65.1472	4.7620	-20.9800
65.7699	4.7492	-20.3897
66.3986	4.7380	-19.8106
67.0333	4.7267	-19.2296
67.6740	4.7175	-18.6639
68.3209	4.7076	-18.1090
68.9739	4.6995	-17.5481
69.6332	4.6915	-17.0110
70.2988	4.6843	-16.4918
70.9707	4.6764	-15.9593
71.6491	4.6705	-15.4089
72.3339	4.6653	-14.9119
73.0253	4.6589	-14.4204
73.7233	4.6532	-13.8783
74.4280	4.6496	-13.3332
75.1394	4.6470	-12.8231
75.8576	4.6447	-12.3260
76.5827	4.6433	-11.8471
77.3147	4.6415	-11.3916
78.0537	4.6396	-10.9282
78.7998	4.6381	-10.4670
79.5530	4.6365	-9.9953
80.3134	4.6361	-9.5054
81.0811	4.6368	-9.0295
81.8561	4.6382	-8.5782
82.6385	4.6394	-8.1164
83.4284	4.6425	-7.6631
84.2258	4.6456	-7.2602
85.0309	4.6478	-6.8697
85.8436	4.6497	-6.4577
86.6642	4.6525	-6.0548
87.4925	4.6546	-5.6635
88.3288	4.6569	-5.2416
89.1731	4.6606	-4.8205
90.0255	4.6646	-4.4322
90.8860	4.6682	-4.0416
91.7547	4.6727	-3.6535
92.6317	4.6769	-3.2832
93.5171	4.6810	-2.9005
94.4110	4.6859	-2.5237
95.3134	4.6906	-2.1726
96.2245	4.6946	-1.8241
97.1442	4.6983	-1.4961
98.0728	4.6994	-1.0466
99.0102	4.7077	-0.5593
99.9566	4.7156	-0.1700
100.9120	4.7245	0.2374
101.8766	4.7351	0.6562
102.8503	4.7487	0.9276
103.8334	4.7551	1.1777
104.8259	4.7638	1.5370
105.8279	4.7731	1.8528
106.8394	4.7819	2.1421
107.8606	4.7896	2.4760
108.8916	4.8001	2.8084
109.9324	4.8098	3.0628
110.9832	4.8173	3.3309
112.0440	4.8254	3.6238
113.1150	4.8329	3.9089
114.1962	4.8402	4.2126
115.2877	4.8478	4.5604
116.3897	4.8578	4.9149
117.5022	4.8686	5.2659
118.6253	4.8820	5.5663
119.7592	4.8934	5.8179
120.9039	4.9048	6.0927
122.0596	4.9166	6.3478
123.2263	4.9276	6.5649
124.4041	4.9365	6.8056
125.5932	4.9463	7.0802
126.7937	4.9562	7.3423
128.0056	4.9659	7.6138
129.2292	4.9763	7.9172
130.4644	4.9886	8.2015
131.7114	5.0005	8.4531
132.9704	5.0125	8.7099
134.2414	5.0249	8.9630
135.5245	5.0374	9.2032
136.8199	5.0499	9.4190
138.1277	5.0614	9.6142
139.4480	5.0716	9.8165
140.7809	5.0811	10.0511
142.1265	5.0914	10.3083
143.4850	5.1022	10.5736
144.8565	5.1140	10.8519
146.2411	5.1274	11.1148
147.6389	5.1411	11.3410
149.0501	5.1542	11.5532
150.4748	5.1672	11.7678
151.9131	5.1802	11.9652
153.3651	5.1922	12.1371
154.8311	5.2026	12.3299
156.3110	5.2132	12.5503
157.8051	5.2239	12.7725
159.3135	5.2345	13.0213
160.8362	5.2466	13.3032
162.3736	5.2610	13.5533
163.9256	5.2747	13.7718
165.4925	5.2888	13.9978
167.0743	5.3034	14.2107
168.6713	5.3176	14.4132
170.2835	5.3319	14.6146
171.9112	5.3462	14.7805
173.5544	5.3582	14.9483
175.2133	5.3703	15.1573
176.8880	5.3828	15.3783
178.5788	5.3959	15.6041
180.2857	5.4095	15.8619
182.0090	5.4261	16.1004
183.7487	5.4420	16.2908
185.5050	5.4578	16.4864
187.2782	5.4741	16.6622
189.0683	5.4893	16.8100
190.8754	5.5032	16.9573
192.6999	5.5160	17.1242
194.5418	5.5288	17.3119
196.4013	5.5416	17.5188
198.2786	5.5553	17.7433
200.1738	5.5700	17.9884
202.0872	5.5870	18.2274
204.0188	5.6048	18.4248
205.9689	5.6221	18.6163
207.9377	5.6405	18.8097
209.9252	5.6593	18.9722
211.9317	5.6776	19.0915
213.9575	5.6938	19.1790
216.0026	5.7075	19.2874
218.0672	5.7206	19.4240
220.1516	5.7329	19.5843
222.2559	5.7459	19.7763
224.3803	5.7600	19.9808
226.5250	5.7754	20.1633
228.6902	5.7901	20.3348
230.8762	5.8055	20.5055
233.0830	5.8202	20.6803
235.3109	5.8359	20.8587
237.5601	5.8515	21.0008
239.8308	5.8653	21.1400
242.1232	5.8787	21.3106
244.4375	5.8925	21.4858
246.7739	5.9055	21.6823
249.1327	5.9202	21.9228
251.5140	5.9374	22.1524
253.9181	5.9552	22.3432
256.3451	5.9727	22.5312
258.7954	5.9912	22.7142
261.2690	6.0093	22.8864
263.7664	6.0280	23.0419
266.2876	6.0454	23.1697
268.8329	6.0612	23.3101
271.4025	6.0766	23.4809
273.9966	6.0927	23.6628
276.6156	6.1088	23.8535
279.2596	6.1257	24.0766
281.9289	6.1454	24.2921
284.6237	6.1654	24.4686
287.3442	6.1852	24.6335
290.0908	6.2049	24.8019
292.8636	6.2253	24.9450
295.6629	6.2440	25.0442
298.4890	6.2599	25.1709
301.3421	6.2761	25.3418
304.2224	6.2926	25.5195
307.1303	6.3094	25.7206
310.0660	6.3278	25.9579
313.0297	6.3495	26.1727
316.0218	6.3712	26.3387
319.0424	6.3923	26.4979
322.0920	6.4135	26.6597
325.1707	6.4348	26.8137
328.2788	6.4560	26.9485
331.4166	6.4760	27.0596
334.5844	6.4940	27.1793
337.7825	6.5113	27.3305
341.0112	6.5288	27.5005
344.2707	6.5467	27.6868
347.5614	6.5654	27.9017
350.8835	6.5868	28.1104
354.2374	6.6086	28.2911
357.6234	6.6307	28.4597
361.0417	6.6524	28.6264
364.4926	6.6748	28.7816
367.9766	6.6961	28.8975
371.4939	6.7145	29.0333
375.0448	6.7334	29.2162
378.6296	6.7528	29.4091
382.2487	6.7728	29.6261
385.9024	6.7948	29.8852
389.5910	6.8210	30.1235
393.3149	6.8475	30.3163
397.0744	6.8745	30.5107
400.8698	6.9031	30.6827
404.7014	6.9309	30.8319
408.5697	6.9593	30.9544
412.4750	6.9854	31.0321
416.4176	7.0084	31.1119
420.3979	7.0292	31.2392
424.4163	7.0509	31.3901
428.4730	7.0718	31.5550
432.5685	7.0939	31.7593
436.7032	7.1184	31.9644
440.8774	7.1436	32.1621
445.0915	7.1705	32.3622
449.3458	7.1988	32.5405
453.6409	7.2272	32.6951
457.9770	7.2554	32.8147
462.3545	7.2807	32.9369
466.7739	7.3061	33.1281
471.2355	7.3357	33.2862
475.7397	7.3619	33.4130
480.2870	7.3893	33.5881
484.8778	7.4191	33.7174
489.5125	7.4460	33.7631
494.1915	7.4667	33.8728
498.9152	7.4908	34.0508
503.6840	7.5151	34.2058
508.4984	7.5397	34.3553
513.3588	7.5636	34.4899
518.2657	7.5858	34.6496
523.2195	7.6092	34.8374
528.2207	7.6330	35.0294
533.2697	7.6575	35.2529
538.3668	7.6850	35.5053
543.5128	7.7160	35.7334
548.7079	7.7477	35.9106
553.9527	7.7784	36.0782
559.2476	7.8096	36.2466
564.5931	7.8404	36.3909
569.9897	7.8697	36.5073
575.4379	7.8953	36.6639
580.9382	7.9231	36.8612
586.4910	7.9507	37.0585
592.0969	7.9794	37.2910
597.7565	8.0110	37.5552
603.4700	8.0467	37.7858
609.2383	8.0817	38.0113
615.0616	8.1210	38.2450
620.9406	8.1616	38.4090
626.8759	8.2001	38.5431
632.8678	8.2380	38.6921
638.9170	8.2768	38.7687
645.0240	8.3073	38.8228
651.1895	8.3357	38.9845
657.4138	8.3671	39.1838
663.6976	8.3990	39.3802
670.0415	8.4320	39.6240
676.4460	8.4704	39.8688
682.9118	8.5101	40.0643
689.4393	8.5500	40.2438
696.0293	8.5901	40.4256
702.6822	8.6316	40.5880
709.3987	8.6719	40.6934
716.1794	8.7070	40.8203
723.0250	8.7433	41.0077
729.9360	8.7809	41.1872
736.9130	8.8173	41.3940
743.9567	8.8572	41.6696
751.0677	8.9040	41.9209
758.2468	8.9517	42.1132
765.4944	9.0001	42.2960
772.8113	9.0499	42.4557
780.1982	9.0991	42.5920
787.6556	9.1483	42.6954
795.1844	9.1943	42.7488
802.7850	9.2344	42.8310
810.4584	9.2745	42.9812
818.2051	9.3163	43.1453
826.0259	9.3583	43.3519
833.9213	9.4070	43.5596
841.8923	9.4564	43.7116
849.9395	9.5062	43.8357
858.0635	9.5544	43.9494
866.2653	9.6030	44.0336
874.5454	9.6470	44.1166
882.9047	9.6918	44.1944
891.3438	9.7312	44.2678
899.8636	9.7700	44.3844
908.4649	9.8081	44.5107
917.1484	9.8450	44.6891
925.9149	9.8868	44.9157
934.7651	9.9331	45.1062
943.7000	9.9792	45.2607
952.7203	10.0258	45.3956
961.8268	10.0706	45.4940
971.0203	10.1116	45.5385
980.3018	10.1423	45.6685
989.6719	10.1790	45.8994
999.1315	10.2166	46.1369
1008.7000	10.2581	46.4231
1018.3000	10.3057	46.7640
1028.1000	10.3652	47.0090
1037.9000	10.4185	47.1144
1047.8000	10.4650	47.2738
1057.8000	10.5138	47.4903
1067.9000	10.5629	47.7192
1078.1000	10.6145	47.9795
1088.4000	10.6699	48.2874
1098.8000	10.7345	48.5719
1109.4000	10.8004	48.7823
1120.0000	10.8662	48.9713
1130.7000	10.9322	49.1538
1141.5000	10.9989	49.3196
1152.4000	11.0649	49.4469
1163.4000	11.1274	49.5232
1174.5000	11.1817	49.6376
1185.7000	11.2375	49.8173
1197.1000	11.2933	50.0177
1208.5000	11.3512	50.2636
1220.1000	11.4142	50.5623
1231.7000	11.4871	50.8250
1243.5000	11.5600	51.0302
1255.4000	11.6352	51.2264
1267.4000	11.7113	51.3895
1279.5000	11.7867	51.5157
1291.7000	11.8589	51.5818
1304.1000	11.9211	51.6821
1316.5000	11.9850	51.8504
1329.1000	12.0482	52.0415
1341.8000	12.1138	52.2743
1354.7000	12.1829	52.5901
1367.6000	12.2674	52.8880
1380.7000	12.3527	53.0863
1393.9000	12.4383	53.2749
1407.2000	12.5258	53.4681
1420.6000	12.6169	53.6222
1434.2000	12.7056	53.7078
1447.9000	12.7883	53.7567
1461.8000	12.8629	53.8521
1475.7000	12.9386	54.0122
1489.9000	13.0154	54.1894
1504.1000	13.0933	54.4156
1518.5000	13.1790	54.7094
1533.0000	13.2778	54.9501
1547.6000	13.3760	55.1051
1562.4000	13.4742	55.2529
1577.4000	13.5735	55.3803
1592.4000	13.6717	55.4658
1607.7000	13.7649	55.4934
1623.0000	13.8460	55.5710
1638.5000	13.9301	55.7379
1654.2000	14.0160	55.9274
1670.0000	14.1054	56.1666
1686.0000	14.2033	56.4738
1702.1000	14.3171	56.7451
1718.4000	14.4334	56.9391
1734.8000	14.5528	57.1223
1751.4000	14.6759	57.2907
1768.1000	14.8025	57.4435
1785.0000	14.9335	57.5415
1802.1000	15.0608	57.5342
1819.3000	15.1727	57.5683
1836.7000	15.2894	57.7193
1854.2000	15.4125	57.9193
1872.0000	15.5466	58.3170
1889.9000	15.7327	58.6616
1907.9000	15.9288	58.6426
1926.2000	16.1126	58.5159
1944.6000	16.3020	58.3464
1963.2000	16.4906	57.8222
1981.9000	16.6212	57.1264
2000.9000	16.7255	56.4920
2020.0000	16.7950	55.7270
2039.3000	16.8093	54.8002
2058.8000	16.7429	54.0265
2078.5000	16.6348	53.7480
2098.3000	16.5260	53.9563
2118.4000	16.4457	54.4930
2138.6000	16.3995	55.3339
2159.1000	16.4212	56.3280
2179.7000	16.4962	57.2039
2200.6000	16.6105	57.8839
2221.6000	16.7441	58.3345
2242.8000	16.8791	58.5798
2264.3000	16.9984	58.7925
2285.9000	17.1202	59.0580
2307.8000	17.2430	59.3096
2329.8000	17.3655	59.6037
2352.1000	17.4998	59.9754
2374.6000	17.6552	60.2806
2397.3000	17.8106	60.4754
2420.2000	17.9667	60.6447
2443.3000	18.1235	60.7852
2466.7000	18.2795	60.8988
2490.2000	18.4354	60.9559
2514.0000	18.5814	60.9228
2538.1000	18.7061	60.9335
2562.3000	18.8313	61.0451
2586.8000	18.9575	61.1794
2611.6000	19.0846	61.3684
2636.5000	19.2231	61.6459
2661.7000	19.3847	61.8755
2687.2000	19.5468	62.0052
2712.8000	19.7098	62.1177
2738.8000	19.8742	62.2106
2765.0000	20.0391	62.2474
2791.4000	20.1945	62.1999
2818.1000	20.3286	62.1961
2845.0000	20.4639	62.2867
2872.2000	20.6004	62.3971
2899.6000	20.7377	62.5635
2927.4000	20.8874	62.8188
2955.3000	21.0622	63.0292
2983.6000	21.2381	63.1421
3012.1000	21.4151	63.2368
3040.9000	21.5934	63.3112
3070.0000	21.7715	63.3626
3099.3000	21.9487	63.3679
3128.9000	22.1163	63.2951
3158.8000	22.2600	63.2672
3189.0000	22.4057	63.3356
3219.5000	22.5525	63.4228
3250.3000	22.7003	63.5629
3281.4000	22.8602	63.7896
3312.7000	23.0465	63.9736
3344.4000	23.2326	64.0674
3376.4000	23.4201	64.1528
3408.6000	23.6101	64.2463
3441.2000	23.8101	64.2558
3474.1000	23.9904	64.1533
3507.3000	24.1459	64.1201
3540.8000	24.3031	64.1829
3574.7000	24.4622	64.2427
3608.8000	24.6140	64.3850
3643.3000	24.7889	64.6439
3678.2000	24.9937	64.8328
3713.3000	25.1987	64.9248
3748.8000	25.4053	65.0036
3784.7000	25.6136	65.0637
3820.8000	25.8221	65.1056
3857.3000	26.0310	65.1060
3894.2000	26.2299	65.0241
3931.4000	26.4007	64.9806
3969.0000	26.5731	65.0379
4007.0000	26.7480	65.1180
4045.3000	26.9249	65.2488
4083.9000	27.1168	65.4636
4123.0000	27.3398	65.6385
4162.4000	27.5645	65.7215
4202.2000	27.7907	65.7889
4242.3000	28.0191	65.8393
4282.9000	28.2476	65.8720
4323.8000	28.4773	65.8603
4365.1000	28.6952	65.7676
4406.9000	28.8835	65.7118
4449.0000	29.0720	65.7529
4491.5000	29.2636	65.8192
4534.4000	29.4568	65.9309
4577.8000	29.6644	66.1249
4621.5000	29.9051	66.2866
4665.7000	30.1484	66.3580
4710.3000	30.3926	66.4130
4755.3000	30.6397	66.4537
4800.8000	30.8884	66.4440
4846.7000	31.1247	66.3473
4893.0000	31.3272	66.2905
4939.8000	31.5320	66.3286
4987.0000	31.7372	66.3890
5034.7000	31.9448	66.5084
5082.8000	32.1707	66.7144
5131.4000	32.4345	66.8775
5180.4000	32.6994	66.9495
5229.9000	32.9674	67.0070
5279.9000	33.2379	67.0387
5330.4000	33.5061	67.0502
5381.3000	33.7739	67.0276
5432.8000	34.0293	66.9299
5484.7000	34.2501	66.8662
5537.1000	34.4706	66.9021
5590.0000	34.6958	66.9693
5643.5000	34.9253	67.0818
5697.4000	35.1730	67.2692
5751.9000	35.4585	67.4252
5806.9000	35.7489	67.4960
5862.4000	36.0419	67.5426
5918.4000	36.3366	67.5728
5975.0000	36.6338	67.5645
6032.1000	36.9216	67.4686
6089.7000	37.1712	67.3907
6147.9000	37.4202	67.3698
6206.7000	37.6539	67.3757
6266.0000	37.8900	67.4626
6325.9000	38.1416	67.6370
6386.4000	38.4341	67.7965
6447.4000	38.7320	67.9089
6509.1000	39.0498	67.9955
6571.3000	39.3669	68.0361
6634.1000	39.6868	68.0655
6697.5000	40.0093	68.0433
6761.5000	40.3144	67.9352
6826.2000	40.5766	67.8683
6891.4000	40.8411	67.8945
6957.3000	41.1062	67.9444
7023.8000	41.3744	68.0483
7090.9000	41.6634	68.2408
7158.7000	42.0023	68.3994
7227.1000	42.3444	68.4618
7296.2000	42.6877	68.5071
7365.9000	43.0339	68.5398
7436.3000	43.3815	68.5552
7507.4000	43.7296	68.5289
7579.2000	44.0620	68.4215
7651.6000	44.3474	68.3486
7724.8000	44.6337	68.3720
7798.6000	44.9219	68.4237
7873.1000	45.2147	68.5241
7948.4000	45.5274	68.7218
8024.4000	45.9012	68.8844
8101.1000	46.2750	68.9457
8178.5000	46.6541	68.9925
8256.7000	47.0356	69.0166
8335.6000	47.4182	68.9895
8415.3000	47.7797	68.8818
8495.7000	48.0916	68.8184
8576.9000	48.4069	68.8527
8658.9000	48.7269	68.9086
8741.7000	49.0506	69.0077
8825.2000	49.3962	69.1939
8909.6000	49.8003	69.3503
8994.7000	50.2083	69.4085
9080.7000	50.6149	69.4550
9167.5000	51.0278	69.4969
9255.1000	51.4445	69.5221
9343.6000	51.8653	69.4940
9432.9000	52.2613	69.3804
9523.1000	52.6018	69.3048
9614.1000	52.9386	69.3275
9706.0000	53.2762	69.3756
9798.8000	53.6036	69.6234
9892.4000	54.0659	69.9341
9987.0000	54.5683	69.9799
10082.4000	55.0195	69.9516
10178.8000	55.4749	69.9960
10276.1000	55.9519	69.8981
10374.3000	56.3238	69.8216
10473.5000	56.7275	69.9726
10573.6000	57.1975	70.0974
10674.7000	57.6734	70.1353
10776.7000	58.1536	70.1510
10879.7000	58.6341	70.1499
10983.7000	59.1170	70.1041
11088.7000	59.5749	69.9752
11194.7000	59.9695	69.8808
11301.7000	60.3607	69.8895
11409.7000	60.7598	69.9287
11518.8000	61.1610	70.0214
11628.9000	61.5985	70.2033
11740.0000	62.1076	70.3510
11852.2000	62.6269	70.4022
11965.5000	63.1462	70.4354
12079.9000	63.6764	70.4467
12195.4000	64.2022	70.4036
12311.9000	64.7043	70.2824
12429.6000	65.1363	70.1987
12548.4000	65.5725	70.2058
12668.4000	66.0060	70.2407
12789.4000	66.4488	70.3312
12911.7000	66.9220	70.5100
13035.1000	67.4789	70.6598
13159.7000	68.0426	70.7143
13285.5000	68.6132	70.7476
13412.5000	69.1878	70.7629
13540.7000	69.7693	70.7183
13670.1000	70.3123	70.5876
13800.8000	70.7827	70.5050
13932.7000	71.2547	70.5211
14065.9000	71.7339	70.5628
14200.3000	72.2177	70.6545
14336.0000	72.7398	70.8355
14473.1000	73.3487	70.9826
14611.4000	73.9650	71.0367
14751.1000	74.5861	71.0774
14892.1000	75.2173	71.1091
15034.4000	75.8591	71.1135
15178.1000	76.4994	71.0595
15323.2000	77.1050	70.9279
15469.7000	77.6322	70.8279
15617.5000	78.1513	70.8220
15766.8000	78.6750	70.8542
15917.5000	79.2067	70.9434
16069.7000	79.7838	71.1121
16223.3000	80.4475	71.2526
16378.3000	81.1293	71.3062
16534.9000	81.8155	71.3331
16692.9000	82.5097	71.3452
16852.5000	83.2120	71.3038
17013.6000	83.8801	71.1657
17176.2000	84.4508	71.0639
17340.4000	85.0227	71.0691
17506.1000	85.6034	71.1005
17673.4000	86.1894	71.1847
17842.4000	86.8245	71.3627
18012.9000	87.5700	71.5011
18185.1000	88.3237	71.5368
18358.9000	89.0824	71.5457
18534.4000	89.8411	71.5390
18711.6000	90.6081	71.4861
18890.4000	91.3384	71.3453
19071.0000	91.9753	71.2329
19253.3000	92.6082	71.2047
19437.3000	93.2412	71.1730
19623.1000	93.8408	71.1905
19810.6000	94.4930	71.3675
20000.0000	95.1641	71.3683