Freq	Ohm	Deg
200.0000	3.0179	7.5828
201.3306	3.0186	7.6566
202.6701	3.0187	7.8826
204.0186	3.0195	8.0256
205.3759	3.0204	8.1648
206.7423	3.0207	8.3025
208.1178	3.0224	8.4590
209.5025	3.0240	8.5612
210.8964	3.0258	8.6542
212.2995	3.0273	8.7424
213.7120	3.0290	8.8247
215.1339	3.0304	8.9148
216.5652	3.0320	9.0225
218.0060	3.0338	9.1011
219.4565	3.0353	9.1708
220.9166	3.0366	9.2648
222.3864	3.0382	9.3685
223.8660	3.0399	9.4702
225.3554	3.0418	9.5558
226.8547	3.0434	9.6303
228.3641	3.0450	9.7259
229.8834	3.0468	9.8216
231.4129	3.0485	9.9163
232.9525	3.0505	10.0102
234.5024	3.0524	10.0862
236.0626	3.0540	10.1790
237.6332	3.0560	10.2787
239.2142	3.0579	10.3621
240.8057	3.0598	10.4478
242.4079	3.0617	10.5243
244.0207	3.0632	10.6105
245.6442	3.0650	10.7286
247.2785	3.0672	10.8233
248.9237	3.0690	10.9073
250.5799	3.0709	11.0153
252.2470	3.0731	11.1239
253.9253	3.0754	11.2238
255.6147	3.0777	11.3112
257.3154	3.0799	11.3988
259.0273	3.0820	11.5040
260.7507	3.0845	11.6030
262.4855	3.0868	11.6937
264.2319	3.0891	11.7886
265.9899	3.0914	11.8850
267.7596	3.0937	11.9929
269.5411	3.0963	12.0855
271.3344	3.0985	12.1820
273.1396	3.1011	12.2933
274.9569	3.1037	12.3876
276.7862	3.1061	12.4908
278.6277	3.1088	12.6078
280.4815	3.1116	12.7073
282.3476	3.1142	12.8189
284.2261	3.1174	12.9266
286.1172	3.1202	13.0105
288.0208	3.1229	13.1117
289.9370	3.1258	13.2118
291.8660	3.1285	13.3104
293.8079	3.1313	13.4223
295.7627	3.1342	13.5211
297.7304	3.1368	13.6241
299.7113	3.1397	13.7503
301.7054	3.1429	13.8621
303.7127	3.1458	13.9712
305.7333	3.1490	14.0805
307.7674	3.1519	14.2001
309.8151	3.1552	14.3332
311.8764	3.1587	14.4451
313.9513	3.1620	14.5634
316.0401	3.1655	14.6957
318.1428	3.1693	14.8133
320.2595	3.1729	14.9334
322.3902	3.1768	15.0375
324.5352	3.1801	15.1504
326.6944	3.1839	15.2895
328.8679	3.1877	15.4019
331.0560	3.1913	15.5284
333.2586	3.1953	15.6823
335.4758	3.1997	15.8151
337.7078	3.2038	15.9554
339.9546	3.2086	16.0934
342.2164	3.2132	16.2001
344.4933	3.2175	16.3260
346.7853	3.2222	16.4463
349.0925	3.2264	16.5675
351.4151	3.2310	16.7209
353.7531	3.2359	16.8515
356.1067	3.2405	16.9802
358.4760	3.2454	17.1378
360.8610	3.2506	17.2782
363.2619	3.2557	17.4176
365.6788	3.2611	17.5429
368.1117	3.2660	17.6704
370.5608	3.2713	17.8352
373.0263	3.2769	17.9719
375.5081	3.2821	18.1147
378.0064	3.2878	18.2886
380.5214	3.2938	18.4429
383.0531	3.2997	18.6108
385.6016	3.3063	18.7824
388.1671	3.3130	18.9011
390.7497	3.3189	19.0301
393.3494	3.3252	19.1979
395.9665	3.3317	19.3685
398.6009	3.3384	19.5427
401.2529	3.3455	19.6947
403.9225	3.3522	19.8555
406.6099	3.3594	20.0631
409.3152	3.3675	20.2491
412.0384	3.3755	20.3989
414.7798	3.3833	20.5432
417.5394	3.3909	20.7257
420.3174	3.3993	20.9364
423.1139	3.4083	21.0823
425.9289	3.4162	21.2428
428.7627	3.4250	21.4627
431.6154	3.4345	21.6380
434.4870	3.4436	21.8093
437.3778	3.4532	21.9607
440.2877	3.4618	22.1368
443.2171	3.4715	22.3812
446.1659	3.4820	22.5526
449.1343	3.4915	22.7440
452.1225	3.5022	23.0085
455.1306	3.5140	23.2125
458.1587	3.5252	23.4427
461.2069	3.5383	23.6670
464.2754	3.5507	23.8150
467.3643	3.5627	24.0173
470.4738	3.5758	24.2069
473.6040	3.5880	24.3953
476.7550	3.6010	24.6609
479.9269	3.6156	24.8496
483.1200	3.6285	25.0422
486.3343	3.6430	25.3228
489.5700	3.6584	25.5547
492.8272	3.6739	25.7734
496.1061	3.6900	25.9591
499.4068	3.7050	26.1811
502.7295	3.7217	26.4946
506.0742	3.7401	26.7067
509.4413	3.7569	26.9341
512.8307	3.7758	27.2606
516.2427	3.7963	27.5034
519.6773	3.8162	27.7397
523.1349	3.8377	27.9270
526.6154	3.8571	28.1381
530.1191	3.8786	28.4765
533.6461	3.9022	28.6818
537.1965	3.9235	28.9092
540.7706	3.9475	29.2669
544.3685	3.9733	29.5282
547.9903	3.9986	29.8437
551.6362	4.0277	30.1728
555.3064	4.0568	30.3460
559.0009	4.0847	30.5939
562.7201	4.1155	30.7957
566.4640	4.1432	31.0500
570.2328	4.1753	31.4843
574.0267	4.2107	31.7228
577.8458	4.2436	31.9771
581.6904	4.2803	32.4150
585.5605	4.3213	32.6927
589.4563	4.3606	32.9638
593.3781	4.4044	33.1331
597.3260	4.4430	33.3236
601.3001	4.4868	33.8236
605.3007	4.5370	34.0694
609.3279	4.5827	34.3055
613.3819	4.6347	34.8314
617.4629	4.6937	35.1752
621.5710	4.7523	35.5210
625.7064	4.8194	35.8194
629.8694	4.8858	35.7844
634.0601	4.9483	35.9228
638.2786	5.0182	35.9968
642.5252	5.0817	36.0914
646.8001	5.1536	36.4677
651.1034	5.2315	36.5514
655.4353	5.3053	36.7170
659.7961	5.3893	37.1858
664.1858	5.4838	37.3335
668.6048	5.5752	37.4740
673.0532	5.6791	37.4688
677.5312	5.7742	37.4697
682.0389	5.8831	37.9472
686.5767	6.0084	37.9243
691.1446	6.1248	37.8343
695.7430	6.2569	38.1690
700.3719	6.4055	38.0251
705.0316	6.5484	37.8050
709.7223	6.7087	37.4048
714.4443	6.8567	36.9515
719.1976	7.0224	37.0223
723.9826	7.2107	36.4377
728.7994	7.3828	35.7074
733.6483	7.5741	35.4820
738.5294	7.7867	34.7096
743.4430	7.9902	33.9820
748.3893	8.2280	33.0647
753.3685	8.4536	31.2835
758.3808	8.6628	29.8357
763.4265	8.8921	28.1359
768.5058	9.0926	26.2024
773.6188	9.3027	24.7096
778.7659	9.5264	22.4627
783.9472	9.7096	19.7981
789.1629	9.8814	17.4174
794.4134	10.0427	14.6881
799.6988	10.1699	11.8074
805.0194	10.2807	8.7253
810.3754	10.3458	5.2850
815.7670	10.3674	2.0164
821.1944	10.3602	-1.1454
826.6580	10.3195	-4.4976
832.1580	10.2331	-7.8749
837.6945	10.1096	-10.8759
843.2679	9.9696	-13.8487
848.8783	9.7902	-16.6103
854.5261	9.6067	-19.2519
860.2114	9.3888	-22.0923
865.9346	9.1434	-23.8698
871.6959	8.9385	-25.6155
877.4955	8.7009	-28.1083
883.3336	8.4404	-29.7234
889.2106	8.2049	-31.2804
895.1268	7.9418	-32.7885
901.0822	7.6953	-33.1906
907.0773	7.4844	-34.1391
913.1123	7.2442	-34.7127
919.1875	7.0530	-34.6716
925.3030	6.8634	-35.4462
931.4593	6.6665	-35.4947
937.6565	6.5077	-35.3680
943.8949	6.3469	-36.0678
950.1748	6.1747	-36.1711
956.4966	6.0286	-36.0513
962.8603	5.8776	-35.6974
969.2665	5.7586	-35.1195
975.7152	5.6432	-35.5171
982.2069	5.5104	-35.2860
988.7417	5.4091	-34.5757
995.3200	5.3107	-34.7448
1001.9420	5.2013	-34.6291
1008.6080	5.1080	-34.4692
1015.3190	5.0041	-34.3350
1022.0740	4.9114	-33.4270
1028.8740	4.8388	-33.0107
1035.7190	4.7534	-32.8695
1042.6100	4.6763	-31.9302
1049.5470	4.6173	-31.3539
1056.5300	4.5509	-30.9454
1063.5590	4.4964	-30.3532
1070.6350	4.4401	-30.0872
1077.7580	4.3832	-29.4657
1084.9290	4.3378	-28.7558
1092.1470	4.2935	-28.5652
1099.4130	4.2433	-28.1192
1106.7280	4.2026	-27.5098
1114.0910	4.1608	-26.9282
1121.5040	4.1273	-26.2775
1128.9650	4.0951	-25.9556
1136.4770	4.0598	-25.4610
1144.0380	4.0316	-24.8853
1151.6490	4.0035	-24.5537
1159.3120	3.9749	-24.1466
1167.0250	3.9489	-23.7952
1174.7890	3.9205	-23.4450
1182.6050	3.8947	-22.8687
1190.4730	3.8733	-22.4480
1198.3940	3.8494	-21.9974
1206.3670	3.8309	-21.5017
1214.3930	3.8115	-21.1911
1222.4730	3.7916	-20.7298
1230.6060	3.7757	-20.2486
1238.7940	3.7599	-19.9401
1247.0360	3.7430	-19.5542
1255.3330	3.7286	-19.1519
1263.6850	3.7137	-18.7130
1272.0920	3.7024	-18.2351
1280.5560	3.6918	-17.9119
1289.0750	3.6800	-17.5287
1297.6520	3.6710	-17.1098
1306.2860	3.6623	-16.7831
1314.9770	3.6536	-16.4247
1323.7250	3.6464	-16.0688
1332.5320	3.6391	-15.7107
1341.3980	3.6336	-15.3356
1350.3230	3.6287	-15.0189
1359.3070	3.6240	-14.6888
1368.3500	3.6206	-14.3428
1377.4540	3.6181	-14.0552
1386.6190	3.6153	-13.7709
1395.8440	3.6136	-13.4818
1405.1310	3.6121	-13.1918
1414.4800	3.6119	-12.9063
1423.8910	3.6122	-12.6531
1433.3640	3.6130	-12.4184
1442.9010	3.6142	-12.1850
1452.5010	3.6162	-11.9772
1462.1640	3.6183	-11.8111
1471.8920	3.6205	-11.6609
1481.6850	3.6227	-11.5197
1491.5430	3.6252	-11.3966
1501.4670	3.6276	-11.3018
1511.4560	3.6301	-11.2412
1521.5130	3.6318	-11.2198
1531.6350	3.6329	-11.2090
1541.8260	3.6335	-11.2150
1552.0840	3.6333	-11.2621
1562.4100	3.6316	-11.3252
1572.8050	3.6290	-11.3698
1583.2700	3.6258	-11.4305
1593.8030	3.6211	-11.5039
1604.4070	3.6155	-11.5458
1615.0820	3.6095	-11.5840
1625.8270	3.6025	-11.6041
1636.6440	3.5956	-11.6375
1647.5330	3.5872	-11.7116
1658.4950	3.5776	-11.7145
1669.5290	3.5686	-11.7132
1680.6370	3.5583	-11.7631
1691.8180	3.5467	-11.7439
1703.0740	3.5356	-11.6981
1714.4050	3.5236	-11.6037
1725.8120	3.5130	-11.4928
1737.2940	3.5017	-11.4456
1748.8520	3.4897	-11.2919
1760.4880	3.4797	-11.1007
1772.2010	3.4697	-10.9787
1783.9920	3.4594	-10.8078
1795.8610	3.4504	-10.6434
1807.8090	3.4408	-10.4674
1819.8370	3.4324	-10.2212
1831.9450	3.4253	-10.0221
1844.1330	3.4179	-9.8177
1856.4030	3.4121	-9.6348
1868.7540	3.4054	-9.5213
1881.1870	3.3983	-9.3463
1893.7030	3.3921	-9.1519
1906.3020	3.3859	-9.0058
1918.9850	3.3792	-8.8293
1931.7520	3.3731	-8.6224
1944.6050	3.3672	-8.3704
1957.5430	3.3630	-8.1006
1970.5670	3.3594	-7.8983
1983.6770	3.3556	-7.6824
1996.8750	3.3528	-7.4338
2010.1610	3.3509	-7.2300
2023.5350	3.3488	-7.0521
2036.9980	3.3470	-6.8847
2050.5500	3.3450	-6.7219
2064.1930	3.3432	-6.5471
2077.9270	3.3414	-6.3868
2091.7520	3.3396	-6.2202
2105.6690	3.3380	-6.0252
2119.6780	3.3371	-5.8343
2133.7810	3.3364	-5.6557
2147.9770	3.3360	-5.4890
2162.2680	3.3357	-5.3317
2176.6540	3.3356	-5.1655
2191.1360	3.3358	-5.0236
2205.7140	3.3357	-4.9162
2220.3890	3.3352	-4.8052
2235.1620	3.3346	-4.6838
2250.0330	3.3338	-4.5473
2265.0030	3.3331	-4.3937
2280.0720	3.3328	-4.2378
2295.2420	3.3327	-4.0900
2310.5130	3.3327	-3.9473
2325.8850	3.3329	-3.8055
2341.3600	3.3331	-3.6642
2356.9380	3.3334	-3.5154
2372.6190	3.3341	-3.3707
2388.4040	3.3347	-3.2190
2404.2950	3.3359	-3.0438
2420.2910	3.3378	-2.8912
2436.3940	3.3398	-2.7745
2452.6040	3.3417	-2.6653
2468.9220	3.3436	-2.5697
2485.3480	3.3452	-2.4865
2501.8830	3.3467	-2.4242
2518.5290	3.3475	-2.3896
2535.2850	3.3475	-2.3326
2552.1530	3.3473	-2.2343
2569.1330	3.3472	-2.1189
2586.2260	3.3474	-2.0041
2603.4330	3.3477	-1.8900
2620.7540	3.3481	-1.7751
2638.1910	3.3486	-1.6554
2655.7430	3.3493	-1.5289
2673.4120	3.3502	-1.4093
2691.1990	3.3512	-1.2957
2709.1040	3.3523	-1.1736
2727.1290	3.3537	-1.0487
2745.2730	3.3553	-0.9430
2763.5380	3.3567	-0.8405
2781.9240	3.3583	-0.7284
2800.4330	3.3601	-0.6267
2819.0650	3.3618	-0.5339
2837.8210	3.3635	-0.4497
2856.7010	3.3648	-0.3660
2875.7080	3.3662	-0.2605
2894.8400	3.3679	-0.1525
2914.1000	3.3696	-0.0578
2933.4880	3.3713	0.0317
2953.0060	3.3730	0.1138
2972.6530	3.3744	0.2127
2992.4300	3.3763	0.3207
3012.3400	3.3780	0.4231
3032.3810	3.3801	0.5311
3052.5560	3.3823	0.6200
3072.8660	3.3843	0.7134
3093.3100	3.3865	0.8280
3113.8910	3.3892	0.9246
3134.6080	3.3916	1.0161
3155.4630	3.3944	1.1007
3176.4570	3.3967	1.1777
3197.5910	3.3992	1.2904
3218.8650	3.4024	1.3893
3240.2810	3.4053	1.4692
3261.8390	3.4084	1.5754
3283.5410	3.4120	1.6500
3305.3870	3.4150	1.7192
3327.3790	3.4185	1.8049
3349.5160	3.4220	1.8484
3371.8020	3.4248	1.9109
3394.2350	3.4282	1.9804
3416.8180	3.4312	2.0286
3439.5500	3.4341	2.1188
3462.4340	3.4378	2.1947
3485.4710	3.4411	2.2525
3508.6600	3.4447	2.3434
3532.0040	3.4490	2.3927
3555.5030	3.4526	2.4261
3579.1590	3.4565	2.4547
3602.9720	3.4598	2.4590
3626.9430	3.4629	2.4800
3651.0740	3.4659	2.4830
3675.3660	3.4681	2.4663
3699.8190	3.4698	2.4806
3724.4340	3.4717	2.4974
3749.2140	3.4729	2.5173
3774.1580	3.4744	2.5476
3799.2680	3.4756	2.5644
3824.5460	3.4764	2.6012
3849.9910	3.4775	2.6328
3875.6060	3.4780	2.6672
3901.3910	3.4787	2.7325
3927.3480	3.4797	2.7971
3953.4780	3.4806	2.8635
3979.7810	3.4818	2.9399
4006.2600	3.4833	3.0056
4032.9140	3.4845	3.0886
4059.7460	3.4865	3.1765
4086.7560	3.4885	3.2537
4113.9460	3.4908	3.3384
4141.3170	3.4933	3.4018
4168.8700	3.4956	3.4779
4196.6070	3.4985	3.5621
4224.5280	3.5015	3.6273
4252.6350	3.5045	3.6993
4280.9280	3.5079	3.7544
4309.4100	3.5110	3.7970
4338.0820	3.5141	3.8630
4366.9440	3.5176	3.9120
4395.9980	3.5206	3.9707
4425.2460	3.5244	4.0514
4454.6880	3.5285	4.0875
4484.3260	3.5321	4.1248
4514.1610	3.5361	4.1775
4544.1950	3.5402	4.2011
4574.4280	3.5440	4.2208
4604.8630	3.5479	4.2173
4635.5000	3.5510	4.2053
4666.3410	3.5540	4.2366
4697.3870	3.5574	4.2520
4728.6400	3.5603	4.2516
4760.1010	3.5632	4.2706
4791.7710	3.5663	4.2774
4823.6520	3.5691	4.2868
4855.7440	3.5721	4.2863
4888.0510	3.5746	4.2659
4920.5720	3.5769	4.2660
4953.3100	3.5793	4.2512
4986.2650	3.5811	4.2229
5019.4400	3.5826	4.2112
5052.8350	3.5841	4.1965
5086.4530	3.5852	4.1830
5120.2940	3.5862	4.1706
5154.3610	3.5869	4.1503
5188.6540	3.5873	4.1349
5223.1750	3.5875	4.1261
5257.9260	3.5875	4.1163
5292.9080	3.5872	4.1137
5328.1230	3.5869	4.1200
5363.5720	3.5865	4.1200
5399.2570	3.5857	4.1233
5435.1800	3.5848	4.1446
5471.3410	3.5840	4.1680
5507.7430	3.5831	4.1994
5544.3870	3.5824	4.2327
5581.2750	3.5816	4.2579
5618.4090	3.5806	4.3005
5655.7890	3.5799	4.3498
5693.4190	3.5791	4.3942
5731.2980	3.5784	4.4501
5769.4300	3.5779	4.5090
5807.8150	3.5775	4.5710
5846.4560	3.5773	4.6402
5885.3530	3.5772	4.7086
5924.5100	3.5774	4.7799
5963.9270	3.5777	4.8598
6003.6060	3.5785	4.9356
6043.5500	3.5793	4.9927
6083.7590	3.5801	5.0483
6124.2350	3.5810	5.1131
6164.9810	3.5821	5.1655
6205.9980	3.5829	5.2103
6247.2880	3.5837	5.2532
6288.8530	3.5842	5.2964
6330.6940	3.5847	5.3649
6372.8130	3.5856	5.4356
6415.2130	3.5864	5.4983
6457.8950	3.5873	5.5836
6500.8610	3.5889	5.6693
6544.1120	3.5905	5.7446
6587.6520	3.5924	5.8172
6631.4810	3.5944	5.8677
6675.6020	3.5961	5.9185
6720.0160	3.5979	6.0004
6764.7260	3.6005	6.0310
6809.7330	3.6018	6.0407
6855.0390	3.6032	6.0880
6900.6470	3.6045	6.1487
6946.5590	3.6062	6.2106
6992.7760	3.6077	6.2565
7039.3000	3.6092	6.2921
7086.1350	3.6102	6.3552
7133.2800	3.6120	6.4408
7180.7390	3.6138	6.5054
7228.5140	3.6159	6.5511
7276.6070	3.6175	6.6106
7325.0200	3.6196	6.6785
7373.7550	3.6217	6.7147
7422.8140	3.6234	6.7651
7472.2000	3.6253	6.8171
7521.9140	3.6270	6.8633
7571.9590	3.6288	6.9149
7622.3370	3.6305	6.9598
7673.0500	3.6320	7.0280
7724.1010	3.6340	7.1090
7775.4910	3.6362	7.1706
7827.2230	3.6383	7.2363
7879.2990	3.6407	7.2992
7931.7220	3.6430	7.3484
7984.4930	3.6453	7.4129
8037.6160	3.6479	7.4626
8091.0920	3.6500	7.5157
8144.9240	3.6526	7.5793
8199.1140	3.6550	7.6238
8253.6640	3.6573	7.6871
8308.5780	3.6599	7.7722
8363.8570	3.6632	7.8248
8419.5030	3.6659	7.8463
8475.5200	3.6684	7.8619
8531.9090	3.6702	7.9058
8588.6740	3.6725	7.9764
8645.8160	3.6749	8.0252
8703.3390	3.6771	8.0685
8761.2440	3.6792	8.1278
8819.5350	3.6815	8.2112
8878.2130	3.6843	8.3355
8937.2820	3.6888	8.3720
8996.7430	3.6912	8.3521
9056.6010	3.6935	8.3946
9116.8560	3.6959	8.4227
9177.5130	3.6976	8.4696
9238.5730	3.6997	8.5392
9300.0390	3.7017	8.5718
9361.9140	3.7028	8.6981
9424.2010	3.7065	8.9256
9486.9020	3.7122	9.0272
9550.0210	3.7167	9.2475
9613.5590	3.7275	9.2510
9677.5200	3.7308	9.0138
9741.9070	3.7334	9.1076
9806.7220	3.7391	9.1471
9871.9680	3.7424	9.0089
9937.6490	3.7434	8.9927
10003.7700	3.7457	8.8817
10070.3200	3.7423	8.9629
10137.3200	3.7458	9.2689
10204.7700	3.7504	9.2503
10272.6600	3.7515	9.2458
10341.0100	3.7544	9.3677
10409.8100	3.7578	9.4350
10479.0700	3.7611	9.4694
10548.7900	3.7640	9.5155
10618.9700	3.7673	9.5625
10689.6200	3.7702	9.6229
10760.7400	3.7738	9.7164
10832.3400	3.7782	9.7468
10904.4100	3.7814	9.7488
10976.9600	3.7845	9.7969
11049.9900	3.7880	9.8328
11123.5100	3.7910	9.8605
11197.5100	3.7942	9.8669
11272.0100	3.7962	9.8666
11347.0100	3.7981	9.9349
11422.5000	3.8009	10.0089
11498.5000	3.8035	10.0640
11575.0000	3.8063	10.1448
11652.0100	3.8098	10.2189
11729.5400	3.8132	10.2864
11807.5800	3.8172	10.3277
11886.1300	3.8203	10.3655
11965.2100	3.8238	10.4397
12044.8200	3.8277	10.4900
12124.9600	3.8311	10.5352
12205.6300	3.8348	10.6026
12286.8400	3.8387	10.6531
12368.5800	3.8423	10.7156
12450.8700	3.8466	10.7728
12533.7100	3.8504	10.8131
12617.1000	3.8544	10.8830
12701.0500	3.8587	10.9329
12785.5500	3.8626	10.9859
12870.6100	3.8669	11.0768
12956.2400	3.8719	11.1479
13042.4500	3.8767	11.2247
13129.2200	3.8824	11.3105
13216.5700	3.8884	11.3561
13304.5000	3.8940	11.4070
13393.0200	3.9002	11.4411
13482.1300	3.9056	11.4671
13571.8300	3.9114	11.5402
13662.1200	3.9180	11.5914
13753.0200	3.9243	11.6217
13844.5200	3.9310	11.6618
13936.6300	3.9379	11.6718
14029.3600	3.9443	11.6853
14122.7000	3.9513	11.6790
14216.6600	3.9574	11.6342
14311.2500	3.9630	11.6059
14406.4600	3.9684	11.5467
14502.3100	3.9725	11.4919
14598.8000	3.9766	11.4847
14695.9300	3.9808	11.4493
14793.7000	3.9841	11.4097
14892.1300	3.9875	11.3751
14991.2100	3.9900	11.3263
15090.9500	3.9921	11.3044
15191.3500	3.9943	11.2807
15292.4200	3.9959	11.2419
15394.1700	3.9969	11.2212
15496.5900	3.9978	11.2089
15599.6900	3.9983	11.2021
15703.4800	3.9987	11.2083
15807.9600	3.9989	11.2284
15913.1300	3.9992	11.2664
16019.0000	3.9996	11.3049
16125.5800	4.0001	11.3574
16232.8700	4.0010	11.4251
16340.8700	4.0022	11.4850
16449.5900	4.0034	11.5569
16559.0300	4.0053	11.6374
16669.2000	4.0075	11.6952
16780.1100	4.0095	11.7645
16891.7500	4.0122	11.8332
17004.1300	4.0146	11.8990
17117.2700	4.0176	11.9812
17231.1500	4.0210	12.0297
17345.7900	4.0238	12.0741
17461.2000	4.0269	12.1469
17577.3700	4.0304	12.1980
17694.3200	4.0334	12.2406
17812.0400	4.0366	12.2799
17930.5500	4.0392	12.3252
18049.8500	4.0421	12.4003
18169.9400	4.0453	12.4564
18290.8200	4.0481	12.5192
18412.5200	4.0513	12.6137
18535.0200	4.0551	12.6942
18658.3400	4.0587	12.7775
18782.4800	4.0630	12.8529
18907.4400	4.0669	12.9340
19033.2300	4.0715	13.0473
19159.8700	4.0768	13.1289
19287.3400	4.0817	13.2187
19415.6600	4.0875	13.3449
19544.8400	4.0942	13.4400
19674.8800	4.1008	13.5335
19805.7800	4.1084	13.6054
19937.5500	4.1152	13.6805
20070.2000	4.1233	13.8032
20203.7300	4.1323	13.8622
20338.1500	4.1406	13.9172
20473.4700	4.1499	14.0166
20609.6800	4.1603	14.0519
20746.8000	4.1698	14.0969
20884.8300	4.1810	14.1331
21023.7900	4.1915	14.0894
21163.6600	4.2014	14.0624
21304.4700	4.2119	13.9702
21446.2100	4.2198	13.8407
21588.9000	4.2274	13.7649
21732.5300	4.2348	13.6285
21877.1200	4.2398	13.4387
22022.6800	4.2431	13.2672
22169.2000	4.2448	13.1016
22316.7000	4.2447	12.9693
22465.1700	4.2440	12.8452
22614.6400	4.2416	12.6945
22765.1000	4.2372	12.5905
22916.5600	4.2320	12.5698
23069.0300	4.2271	12.5965
23222.5100	4.2223	12.6532
23377.0200	4.2180	12.7460
23532.5500	4.2145	12.8665
23689.1200	4.2119	13.0324
23846.7300	4.2111	13.2247
24005.3800	4.2118	13.3929
24165.1000	4.2133	13.5402
24325.8700	4.2154	13.6944
24487.7200	4.2186	13.8539
24650.6400	4.2226	13.9884
24814.6500	4.2269	14.1275
24979.7400	4.2323	14.2613
25145.9400	4.2379	14.3556
25313.2400	4.2433	14.4670
25481.6600	4.2496	14.5668
25651.1900	4.2555	14.6655
25821.8500	4.2623	14.7910
25993.6500	4.2696	14.8714
26166.5900	4.2763	14.9700
26340.6900	4.2843	15.1187
26515.9400	4.2935	15.2175
26692.3500	4.3023	15.3118
26869.9400	4.3124	15.3873
27048.7100	4.3217	15.4714
27228.6800	4.3327	15.6088
27409.8300	4.3452	15.6492
27592.2000	4.3563	15.6721
27775.7800	4.3688	15.7351
27960.5700	4.3820	15.6991
28146.6000	4.3936	15.6271
28333.8700	4.4054	15.5007
28522.3800	4.4143	15.2773
28712.1400	4.4204	15.0735
28903.1700	4.4246	14.8561
29095.4700	4.4255	14.6339
29289.0500	4.4239	14.5015
29483.9200	4.4218	14.4216
29680.0800	4.4183	14.3865
29877.5500	4.4150	14.4319
30076.3300	4.4124	14.5353
30276.4300	4.4113	14.6581
30477.8700	4.4110	14.7827
30680.6500	4.4117	14.9425
30884.7700	4.4143	15.1094
31090.2500	4.4179	15.2452
31297.1000	4.4220	15.3879
31505.3300	4.4275	15.5406
31714.9400	4.4340	15.6524
31925.9500	4.4404	15.7678
32138.3600	4.4481	15.8659
32352.1800	4.4552	15.9626
32567.4300	4.4636	16.0991
32784.1100	4.4731	16.1705
33002.2300	4.4817	16.2563
33221.8000	4.4921	16.4017
33442.8300	4.5040	16.4723
33665.3300	4.5153	16.5225
33889.3200	4.5280	16.5250
34114.7900	4.5387	16.4948
34341.7600	4.5501	16.5286
34570.2500	4.5627	16.4604
34800.2500	4.5726	16.2726
35031.7800	4.5797	16.1063
35264.8600	4.5854	15.9404
35499.4800	4.5883	15.7887
35735.6700	4.5903	15.6481
35973.4300	4.5895	15.5120
36212.7600	4.5872	15.4667
36453.7000	4.5848	15.5098
36696.2300	4.5833	15.6261
36940.3800	4.5836	15.7824
37186.1500	4.5857	15.9320
37433.5600	4.5888	16.0843
37682.6100	4.5937	16.2220
37933.3200	4.5991	16.3601
38185.7000	4.6061	16.5234
38439.7600	4.6148	16.6208
38695.5100	4.6229	16.6947
38952.9600	4.6319	16.8043
39212.1200	4.6421	16.8999
39473.0100	4.6529	16.9971
39735.6300	4.6625	17.0530
40000.0000	4.6749	17.1218