Freq	dB	Phase
20.0000	75.2275	105.1181
20.1737	75.3153	104.9644
20.3488	75.4142	104.9614
20.5255	75.5166	104.8720
20.7037	75.6202	104.7455
20.8835	75.7244	104.5977
21.0648	75.8285	104.4365
21.2478	75.9326	104.2660
21.4322	76.0364	104.0874
21.6183	76.1400	103.9015
21.8061	76.2431	103.7110
21.9954	76.3459	103.5188
22.1864	76.4485	103.3239
22.3790	76.5509	103.1246
22.5733	76.6531	102.9206
22.7693	76.7549	102.7123
22.9670	76.8563	102.5001
23.1665	76.9574	102.2844
23.3676	77.0580	102.0659
23.5705	77.1581	101.8457
23.7752	77.2578	101.6357
23.9816	77.3581	101.4310
24.1899	77.4588	101.2156
24.3999	77.5593	100.9914
24.6118	77.6595	100.7612
24.8255	77.7595	100.5262
25.0410	77.8592	100.2870
25.2585	77.9585	100.0441
25.4778	78.0574	99.7977
25.6990	78.1559	99.5479
25.9221	78.2541	99.2951
26.1472	78.3519	99.0392
26.3743	78.4492	98.7805
26.6033	78.5462	98.5188
26.8343	78.6428	98.2542
27.0673	78.7390	97.9870
27.3023	78.8347	97.7173
27.5394	78.9300	97.4450
27.7785	79.0249	97.1703
28.0197	79.1193	96.8933
28.2630	79.2134	96.6140
28.5084	79.3070	96.3322
28.7559	79.4001	96.0477
29.0056	79.4928	95.7607
29.2575	79.5850	95.4715
29.5115	79.6766	95.1803
29.7677	79.7678	94.8871
30.0262	79.8585	94.5922
30.2869	79.9487	94.2956
30.5499	80.0384	93.9974
30.8152	80.1276	93.6977
31.0827	80.2163	93.3967
31.3526	80.3044	93.0945
31.6249	80.3921	92.7910
31.8995	80.4793	92.4865
32.1765	80.5660	92.1810
32.4558	80.6521	91.8746
32.7377	80.7378	91.5674
33.0219	80.8230	91.2594
33.3086	80.9077	90.9509
33.5979	80.9920	90.6417
33.8896	81.0757	90.3321
34.1839	81.1590	90.0221
34.4807	81.2418	89.7118
34.7801	81.3242	89.4012
35.0821	81.4061	89.0905
35.3867	81.4876	88.7797
35.6939	81.5686	88.4689
36.0039	81.6492	88.1581
36.3165	81.7294	87.8475
36.6318	81.8092	87.5370
36.9499	81.8886	87.2266
37.2707	81.9676	86.9165
37.5944	82.0463	86.6067
37.9208	82.1245	86.2972
38.2501	82.2024	85.9881
38.5822	82.2800	85.6793
38.9172	82.3572	85.3709
39.2551	82.4342	85.0628
39.5960	82.5108	84.7552
39.9398	82.5870	84.4480
40.2866	82.6631	84.1413
40.6364	82.7388	83.8349
40.9892	82.8142	83.5290
41.3451	82.8894	83.2234
41.7041	82.9644	82.9182
42.0662	83.0391	82.6134
42.4315	83.1136	82.3089
42.7999	83.1878	82.0047
43.1716	83.2619	81.7008
43.5464	83.3358	81.3971
43.9245	83.4094	81.0936
44.3059	83.4829	80.7903
44.6906	83.5563	80.4870
45.0787	83.6294	80.1838
45.4701	83.7024	79.8805
45.8649	83.7753	79.5772
46.2632	83.8480	79.2738
46.6649	83.9205	78.9701
47.0701	83.9930	78.6662
47.4788	84.0653	78.3619
47.8910	84.1374	78.0573
48.3069	84.2095	77.7521
48.7263	84.2815	77.4464
49.1494	84.3533	77.1400
49.5762	84.4250	76.8330
50.0066	84.4966	76.5251
50.4408	84.5681	76.2164
50.8788	84.6395	75.9067
51.3206	84.7108	75.5959
51.7662	84.7820	75.2841
52.2157	84.8531	74.9710
52.6691	84.9241	74.6567
53.1264	84.9949	74.3410
53.5877	85.0656	74.0239
54.0530	85.1363	73.7052
54.5223	85.2067	73.3850
54.9958	85.2771	73.0630
55.4733	85.3473	72.7393
55.9550	85.4174	72.4138
56.4408	85.4873	72.0864
56.9309	85.5571	71.7570
57.4252	85.6267	71.4256
57.9238	85.6962	71.0920
58.4268	85.7655	70.7563
58.9341	85.8346	70.4184
59.4458	85.9034	70.0782
59.9620	85.9721	69.7356
60.4826	86.0406	69.3907
61.0078	86.1088	69.0433
61.5375	86.1768	68.6934
62.0719	86.2446	68.3410
62.6108	86.3121	67.9860
63.1545	86.3793	67.6284
63.7029	86.4463	67.2682
64.2560	86.5129	66.9053
64.8139	86.5792	66.5398
65.3767	86.6452	66.1715
65.9444	86.7109	65.8005
66.5170	86.7763	65.4268
67.0945	86.8412	65.0504
67.6771	86.9058	64.6712
68.2647	86.9701	64.2893
68.8575	87.0339	63.9046
69.4554	87.0973	63.5172
70.0585	87.1603	63.1271
70.6668	87.2228	62.7343
71.2804	87.2849	62.3389
71.8993	87.3465	61.9407
72.5236	87.4077	61.5400
73.1533	87.4683	61.1367
73.7885	87.5285	60.7308
74.4292	87.5881	60.3224
75.0755	87.6472	59.9115
75.7274	87.7058	59.4983
76.3849	87.7638	59.0826
77.0481	87.8213	58.6647
77.7172	87.8782	58.2445
78.3920	87.9345	57.8221
79.0726	87.9902	57.3975
79.7592	88.0453	56.9710
80.4518	88.0997	56.5424
81.1503	88.1536	56.1119
81.8550	88.2068	55.6796
82.5657	88.2594	55.2455
83.2826	88.3113	54.8098
84.0058	88.3626	54.3724
84.7352	88.4132	53.9336
85.4709	88.4631	53.4933
86.2131	88.5123	53.0518
86.9617	88.5609	52.6089
87.7168	88.6088	52.1650
88.4784	88.6560	51.7200
89.2467	88.7024	51.2740
90.0216	88.7482	50.8272
90.8032	88.7933	50.3797
91.5917	88.8376	49.9315
92.3870	88.8813	49.4827
93.1892	88.9242	49.0335
93.9983	88.9664	48.5840
94.8145	89.0079	48.1342
95.6378	89.0487	47.6842
96.4682	89.0887	47.2343
97.3058	89.1281	46.7843
98.1507	89.1667	46.3345
99.0030	89.2046	45.8850
99.8626	89.2418	45.4358
100.7297	89.2783	44.9871
101.6044	89.3141	44.5389
102.4866	89.3492	44.0914
103.3765	89.3836	43.6446
104.2741	89.4174	43.1987
105.1795	89.4504	42.7536
106.0928	89.4827	42.3096
107.0140	89.5144	41.8667
107.9432	89.5454	41.4250
108.8804	89.5758	40.9846
109.8259	89.6055	40.5455
110.7795	89.6346	40.1078
111.7414	89.6630	39.6717
112.7116	89.6908	39.2371
113.6903	89.7180	38.8042
114.6775	89.7446	38.3730
115.6732	89.7706	37.9436
116.6776	89.7960	37.5161
117.6907	89.8208	37.0904
118.7126	89.8451	36.6668
119.7434	89.8688	36.2451
120.7831	89.8919	35.8256
121.8319	89.9146	35.4081
122.8897	89.9367	34.9929
123.9568	89.9583	34.5798
125.0331	89.9794	34.1690
126.1188	90.0000	33.7604
127.2138	90.0201	33.3542
128.3184	90.0398	32.9503
129.4326	90.0590	32.5487
130.5565	90.0778	32.1495
131.6901	90.0962	31.7527
132.8336	90.1142	31.3584
133.9870	90.1317	30.9664
135.1504	90.1489	30.5769
136.3239	90.1657	30.1897
137.5076	90.1821	29.8050
138.7015	90.1982	29.4228
139.9059	90.2140	29.0429
141.1207	90.2294	28.6655
142.3460	90.2445	28.2904
143.5820	90.2593	27.9177
144.8287	90.2738	27.5473
146.0863	90.2880	27.1793
147.3548	90.3019	26.8136
148.6342	90.3156	26.4502
149.9248	90.3291	26.0890
151.2266	90.3423	25.7301
152.5397	90.3553	25.3733
153.8642	90.3680	25.0187
155.2002	90.3806	24.6661
156.5478	90.3929	24.3157
157.9071	90.4051	23.9672
159.2782	90.4170	23.6207
160.6612	90.4288	23.2762
162.0563	90.4404	22.9335
163.4634	90.4519	22.5926
164.8827	90.4632	22.2535
166.3144	90.4744	21.9161
167.7585	90.4854	21.5804
169.2152	90.4963	21.2463
170.6844	90.5071	20.9137
172.1665	90.5177	20.5827
173.6614	90.5282	20.2530
175.1693	90.5386	19.9248
176.6903	90.5489	19.5978
178.2245	90.5591	19.2722
179.7720	90.5692	18.9477
181.3330	90.5792	18.6243
182.9075	90.5891	18.3021
184.4957	90.5989	17.9808
186.0976	90.6086	17.6606
187.7135	90.6182	17.3412
189.3434	90.6277	17.0227
190.9875	90.6371	16.7049
192.6458	90.6465	16.3879
194.3186	90.6557	16.0716
196.0059	90.6649	15.7559
197.7078	90.6740	15.4407
199.4245	90.6830	15.1261
201.1561	90.6919	14.8120
202.9027	90.7007	14.4982
204.6645	90.7094	14.1849
206.4416	90.7180	13.8718
208.2341	90.7266	13.5590
210.0422	90.7350	13.2465
211.8660	90.7434	12.9342
213.7056	90.7516	12.6219
215.5612	90.7597	12.3098
217.4330	90.7677	11.9978
219.3209	90.7757	11.6858
221.2253	90.7835	11.3738
223.1462	90.7911	11.0618
225.0837	90.7987	10.7497
227.0381	90.8061	10.4375
229.0095	90.8135	10.1252
230.9980	90.8206	9.8128
233.0038	90.8277	9.5002
235.0269	90.8346	9.1874
237.0677	90.8414	8.8744
239.1261	90.8480	8.5612
241.2024	90.8545	8.2478
243.2968	90.8608	7.9340
245.4093	90.8669	7.6201
247.5402	90.8729	7.3058
249.6896	90.8788	6.9913
251.8577	90.8844	6.6765
254.0445	90.8899	6.3614
256.2504	90.8952	6.0459
258.4754	90.9004	5.7302
260.7197	90.9053	5.4142
262.9836	90.9101	5.0979
265.2671	90.9147	4.7813
267.5704	90.9190	4.4643
269.8937	90.9232	4.1471
272.2372	90.9272	3.8296
274.6010	90.9310	3.5118
276.9853	90.9346	3.1938
279.3904	90.9379	2.8755
281.8163	90.9411	2.5569
284.2633	90.9440	2.2381
286.7316	90.9468	1.9191
289.2213	90.9493	1.5999
291.7326	90.9516	1.2805
294.2657	90.9536	0.9608
296.8208	90.9555	0.6411
299.3981	90.9571	0.3211
301.9978	90.9585	0.0011
304.6200	90.9596	-0.3191
307.2650	90.9606	-0.6394
309.9330	90.9613	-0.9598
312.6241	90.9618	-1.2802
315.3386	90.9620	-1.6007
318.0767	90.9620	-1.9212
320.8386	90.9618	-2.2417
323.6244	90.9614	-2.5622
326.4344	90.9607	-2.8827
329.2688	90.9598	-3.2031
332.1279	90.9587	-3.5234
335.0117	90.9573	-3.8437
337.9206	90.9557	-4.1639
340.8548	90.9539	-4.4839
343.8144	90.9519	-4.8039
346.7998	90.9496	-5.1237
349.8110	90.9471	-5.4433
352.8484	90.9444	-5.7628
355.9122	90.9415	-6.0821
359.0026	90.9383	-6.4013
362.1198	90.9350	-6.7203
365.2641	90.9314	-7.0391
368.4357	90.9276	-7.3578
371.6348	90.9236	-7.6765
374.8617	90.9194	-7.9951
378.1166	90.9150	-8.3137
381.3998	90.9104	-8.6324
384.7115	90.9056	-8.9514
388.0519	90.9006	-9.2708
391.4214	90.8954	-9.5910
394.8201	90.8901	-9.9124
398.2483	90.8845	-10.2356
401.7063	90.8788	-10.5619
405.1943	90.8729	-10.8932
408.7126	90.8669	-11.2341
412.2614	90.8606	-11.6496
415.8411	90.8476	-12.2097
419.4518	90.8189	-12.6622
423.0939	90.7927	-12.9265
426.7676	90.7667	-13.1289
430.4732	90.7456	-13.2590
434.2110	90.7291	-13.3376
437.9813	90.7209	-13.4342
441.7842	90.7150	-13.6003
445.6202	90.7103	-13.7596
449.4896	90.7094	-13.9382
453.3925	90.7086	-14.1854
457.3293	90.7057	-14.5159
461.3002	90.6944	-14.8450
465.3057	90.6795	-14.9837
469.3459	90.6731	-14.9591
473.4213	90.6768	-14.8893
477.5320	90.6923	-14.8891
481.6784	90.7113	-14.9867
485.8608	90.7336	-15.0866
490.0795	90.7618	-15.2333
494.3349	90.7912	-15.4521
498.6272	90.8219	-15.6876
502.9567	90.8551	-15.9614
507.3239	90.8887	-16.2931
511.7290	90.9219	-16.6580
516.1723	90.9549	-17.0513
520.6542	90.9876	-17.4760
525.1751	91.0196	-17.9044
529.7351	91.0539	-18.3557
534.3348	91.0889	-18.9283
538.9744	91.1177	-19.6172
543.6543	91.1391	-20.3669
548.3749	91.1506	-21.0733
553.1364	91.1608	-21.7059
557.9393	91.1695	-22.3130
562.7839	91.1805	-22.9682
567.6705	91.1870	-23.7140
572.5996	91.1886	-24.4842
577.5714	91.1856	-25.2755
582.5865	91.1776	-26.0890
587.6451	91.1644	-26.8889
592.7476	91.1495	-27.7165
597.8944	91.1288	-28.6479
603.0859	91.0980	-29.6127
608.3225	91.0605	-30.5781
613.6045	91.0153	-31.6687
618.9325	90.9525	-32.8614
624.3066	90.8726	-34.0196
629.7275	90.7789	-35.2125
635.1954	90.6629	-36.4543
640.7108	90.5246	-37.8598
646.2741	90.3384	-38.9359
651.8857	90.1504	-39.3654
657.5460	89.9650	-39.7196
663.2554	89.7654	-39.8035
669.0145	89.5771	-39.3617
674.8235	89.4107	-38.6681
680.6830	89.2639	-37.8345
686.5933	89.1390	-36.8383
692.5550	89.0394	-35.7205
698.5685	88.9657	-34.5388
704.6341	88.9180	-33.3475
710.7524	88.8939	-32.1687
716.9239	88.8934	-30.9988
723.1489	88.9163	-29.8493
729.4280	88.9630	-28.7325
735.7616	89.0335	-27.4580
742.1502	89.1530	-26.4909
748.5943	89.2775	-26.1593
755.0943	89.4007	-25.9740
761.6508	89.5314	-25.9798
768.2642	89.6568	-26.3144
774.9350	89.7700	-26.8365
781.6638	89.8716	-27.4613
788.4509	89.9611	-28.1817
795.2970	90.0375	-28.9877
802.2026	90.0994	-29.8580
809.1681	90.1462	-30.7056
816.1941	90.1837	-31.5097
823.2811	90.2122	-32.3063
830.4296	90.2332	-33.1274
837.6402	90.2434	-33.9852
844.9134	90.2427	-34.8912
852.2498	90.2251	-35.7310
859.6499	90.2009	-36.4162
867.1142	90.1721	-37.0976
874.6433	90.1317	-37.6975
882.2379	90.0892	-38.0830
889.8983	90.0510	-38.3510
897.6253	90.0165	-38.5688
905.4193	89.9862	-38.7265
913.2811	89.9615	-38.8207
921.2111	89.9442	-38.8575
929.2099	89.9367	-38.9691
937.2783	89.9284	-39.1864
945.4166	89.9191	-39.5293
953.6257	89.8941	-39.7092
961.9060	89.8812	-39.5684
970.2582	89.8810	-39.3363
978.6829	89.8985	-39.1247
987.1808	89.9256	-39.0182
995.7525	89.9603	-38.8709
1004.3990	90.0124	-38.7970
1013.1200	90.0695	-39.0037
1021.9170	90.1210	-39.4098
1030.7900	90.1628	-39.8684
1039.7400	90.1969	-40.2209
1048.7680	90.2333	-40.4808
1057.8750	90.2712	-40.7602
1067.0600	90.3085	-40.9873
1076.3260	90.3521	-41.1446
1085.6710	90.4022	-41.2981
1095.0980	90.4593	-41.4721
1104.6070	90.5222	-41.6813
1114.1980	90.5907	-41.8430
1123.8730	90.6738	-42.1071
1133.6310	90.7575	-42.6163
1143.4750	90.8367	-43.2408
1153.4030	90.9111	-43.9155
1163.4180	90.9811	-44.6193
1173.5200	91.0473	-45.3453
1183.7100	91.1103	-46.0966
1193.9880	91.1699	-46.8909
1204.3550	91.2245	-47.7209
1214.8130	91.2744	-48.5555
1225.3610	91.3211	-49.4295
1236.0010	91.3608	-50.3528
1246.7330	91.3934	-51.3466
1257.5580	91.4115	-52.2657
1268.4780	91.4285	-53.0155
1279.4920	91.4459	-53.8557
1290.6020	91.4478	-54.5598
1301.8080	91.4579	-54.8678
1313.1110	91.4870	-54.9509
1324.5130	91.5428	-55.0332
1336.0140	91.6177	-55.3428
1347.6140	91.6996	-55.7698
1359.3160	91.7955	-56.2118
1371.1190	91.9071	-57.0109
1383.0240	92.0071	-58.1901
1395.0330	92.0953	-59.4940
1407.1460	92.1695	-60.8424
1419.3640	92.2345	-62.1949
1431.6880	92.2904	-63.5749
1444.1200	92.3388	-65.0027
1456.6590	92.3769	-66.4905
1469.3070	92.4044	-67.9840
1482.0650	92.4242	-69.5131
1494.9340	92.4323	-71.1214
1507.9140	92.4262	-72.7864
1521.0080	92.4033	-74.4453
1534.2140	92.3658	-76.0050
1547.5360	92.3191	-77.4998
1560.9730	92.2605	-78.9847
1574.5270	92.1877	-80.2970
1588.1990	92.1141	-81.4128
1601.9890	92.0397	-82.5804
1615.8990	91.9500	-83.5319
1629.9300	91.8729	-84.1320
1644.0830	91.8082	-84.6267
1658.3580	91.7592	-85.1012
1672.7580	91.7205	-85.6187
1687.2820	91.6908	-86.0978
1701.9330	91.6753	-86.6073
1716.7110	91.6671	-87.2546
1731.6170	91.6613	-87.9368
1746.6520	91.6629	-88.6456
1761.8180	91.6688	-89.5431
1777.1160	91.6675	-90.6193
1792.5470	91.6563	-91.7784
1808.1120	91.6312	-92.8147
1823.8110	91.6086	-93.6765
1839.6480	91.5885	-94.5159
1855.6210	91.5712	-95.3502
1871.7330	91.5561	-96.1881
1887.9860	91.5431	-96.9560
1904.3790	91.5408	-97.7958
1920.9150	91.5354	-98.8331
1937.5940	91.5229	-100.0203
1954.4180	91.4936	-101.1726
1971.3880	91.4593	-102.0626
1988.5060	91.4319	-102.8183
2005.7720	91.4090	-103.5484
2023.1880	91.3915	-104.1847
2040.7550	91.3855	-104.7268
2058.4750	91.3932	-105.1944
2076.3490	91.4219	-105.8373
2094.3780	91.4503	-106.7377
2112.5630	91.4784	-107.6214
2130.9070	91.5151	-108.6398
2149.4090	91.5443	-109.8874
2168.0720	91.5647	-111.2658
2186.8980	91.5685	-112.6206
2205.8870	91.5678	-113.8159
2225.0400	91.5670	-114.9262
2244.3600	91.5698	-116.0442
2263.8480	91.5722	-117.2609
2283.5050	91.5692	-118.5670
2303.3330	91.5573	-119.8955
2323.3320	91.5369	-121.0937
2343.5060	91.5189	-122.1707
2363.8540	91.5018	-123.3121
2384.3800	91.4753	-124.2619
2405.0830	91.4644	-124.9258
2425.9670	91.4690	-125.6019
2447.0310	91.4833	-126.2149
2468.2790	91.5177	-126.7153
2489.7110	91.5732	-127.1514
2511.3290	91.6585	-127.6929
2533.1350	91.7610	-128.5068
2555.1300	91.8747	-129.3872
2577.3160	92.0125	-130.4242
2599.6950	92.1619	-131.9570
2622.2680	92.3023	-133.7909
2645.0370	92.4435	-135.7135
2668.0040	92.5892	-138.2108
2691.1700	92.6984	-141.3109
2714.5370	92.7708	-144.6442
2738.1080	92.7995	-148.0078
2761.8830	92.7988	-151.2935
2785.8640	92.7688	-154.4345
2810.0540	92.7300	-157.7777
2834.4530	92.6470	-161.5715
2859.0650	92.5135	-165.6489
2883.8900	92.3059	-169.5422
2908.9310	92.0573	-172.7639
2934.1890	91.7880	-175.7740
2959.6660	91.4765	-178.5629
2985.3650	91.1397	179.4966
3011.2870	90.8198	178.2285
3037.4340	90.5146	177.1826
3063.8080	90.2224	176.4303
3090.4110	89.9535	175.9583
3117.2450	89.7080	175.6370
3144.3120	89.4861	175.4305
3171.6140	89.2874	175.3119
3199.1530	89.1119	175.2828
3226.9310	88.9619	175.2857
3254.9510	88.8336	175.2729
3283.2130	88.7260	175.3618
3311.7210	88.6507	175.3910
3340.4770	88.5927	175.1211
3369.4820	88.5404	174.7111
3398.7390	88.4968	174.2610
3428.2510	88.4602	173.6849
3458.0180	88.4234	172.9554
3488.0440	88.3807	172.0729
3518.3300	88.3202	171.5372
3548.8800	88.2847	171.4758
3579.6950	88.2740	171.5989
3610.7770	88.3035	171.5792
3642.1300	88.3448	171.2236
3673.7540	88.3967	170.5649
3705.6530	88.4324	170.0630
3737.8290	88.4946	170.1174
3770.2850	88.5967	170.4138
3803.0220	88.7512	170.6047
3836.0440	88.9431	170.3632
3869.3520	89.1573	169.9493
3902.9500	89.4124	169.3878
3936.8390	89.7023	167.9604
3971.0220	89.9746	165.7574
4005.5030	90.2349	163.4674
4040.2820	90.5047	160.4835
4075.3640	90.7236	156.6253
4110.7500	90.8918	152.4068
4146.4440	90.9964	148.1431
4182.4470	91.0605	144.0380
4218.7640	91.0860	139.8918
4255.3950	91.0703	135.7489
4292.3450	91.0176	131.6767
4329.6150	90.9294	127.6941
4367.2090	90.8098	123.7587
4405.1290	90.6546	119.7942
4443.3790	90.4579	115.7057
4481.9610	90.2008	111.6377
4520.8770	89.8827	108.4771
4560.1320	89.5696	106.2188
4599.7280	89.2561	103.8889
4639.6670	88.9004	102.4766
4679.9530	88.6006	102.3705
4720.5890	88.3570	102.6520
4761.5780	88.1774	103.0666
4802.9230	88.0478	103.4420
4844.6260	87.9662	103.9616
4886.6920	87.9450	104.4174
4929.1230	87.9663	104.5578
4971.9230	88.0207	104.4857
5015.0940	88.1037	104.3262
5058.6400	88.2195	104.1901
5102.5640	88.3757	104.1391
5146.8690	88.5860	104.0871
5191.5590	88.8576	103.2564
5236.6380	89.1298	101.5562
5282.1070	89.4039	99.8343
5327.9720	89.7119	97.4687
5374.2340	89.9886	94.1637
5420.8990	90.2341	90.4630
5467.9680	90.4354	86.6611
5515.4470	90.6145	82.9748
5563.3370	90.7755	79.3645
5611.6430	90.9346	75.5622
5660.3690	91.0696	71.2692
5709.5180	91.1659	66.5933
5759.0940	91.2094	61.8488
5809.1000	91.2105	57.5114
5859.5400	91.1982	53.4467
5910.4180	91.1642	49.3217
5961.7390	91.0984	45.6813
6013.5040	91.0484	42.6238
6065.7190	91.0141	39.5960
6118.3880	90.9863	36.7198
6171.5140	90.9824	34.0553
6225.1010	91.0027	31.4984
6279.1530	91.0579	28.8224
6333.6750	91.1302	25.8426
6388.6700	91.2151	22.7857
6444.1430	91.3221	19.5571
6500.0970	91.4389	15.9525
6556.5380	91.5554	12.2794
6613.4680	91.6951	8.4699
6670.8920	91.8459	3.7152
6728.8160	91.9496	-1.9062
6787.2420	92.0018	-7.8559
6846.1750	91.9921	-13.6615
6905.6210	91.9552	-19.1628
6965.5820	91.8911	-24.7533
7026.0640	91.7881	-30.2147
7087.0710	91.6676	-35.4114
7148.6080	91.5306	-40.7739
7210.6790	91.3488	-45.8530
7273.2890	91.1671	-50.2162
7336.4430	91.0006	-54.3521
7400.1450	90.8427	-58.3695
7464.4010	90.7011	-62.1645
7529.2140	90.5838	-65.8932
7594.5900	90.4848	-69.6432
7660.5340	90.4054	-73.2056
7727.0500	90.3642	-76.5386
7794.1440	90.3712	-79.5275
7861.8200	90.4704	-83.5064
7930.0840	90.5440	-88.9565
7998.9410	90.5920	-94.5791
8068.3960	90.6349	-100.6586
8138.4530	90.6359	-107.3810
8209.1200	90.5915	-114.1756
8280.3990	90.5229	-121.2767
8352.2980	90.3981	-128.9853
8424.8210	90.2034	-137.4535
8497.9730	89.8787	-145.7703
8571.7610	89.4856	-152.3588
8646.1890	89.1152	-157.7606
8721.2640	88.7665	-162.9103
8796.9910	88.4394	-167.8730
8873.3750	88.1371	-172.7081
8950.4220	87.8598	-177.4617
9028.1380	87.6120	177.7231
9106.5300	87.3840	172.7674
9185.6010	87.1759	167.8082
9265.3600	86.9970	162.6552
9345.8110	86.8310	157.1662
9426.9600	86.6756	151.5656
9508.8140	86.5416	145.6995
9591.3790	86.4133	139.3608
9674.6610	86.2821	133.0382
9758.6660	86.1900	126.3809
9843.4000	86.1004	118.2144
9928.8700	85.9377	108.8887
10015.0800	85.7024	99.2090
10102.0400	85.3951	89.2451
10189.7600	85.0125	79.0599
10278.2400	84.5541	68.4876
10367.4800	83.9885	58.2036
10457.5000	83.3772	48.5685
10548.3100	82.7202	39.3644
10639.9000	82.0578	29.8823
10732.2800	81.3219	19.5840
10825.4700	80.4986	8.7178
10919.4700	79.5373	-1.7676
11014.2800	78.5060	-10.8157
11109.9200	77.4524	-19.1202
11206.3900	76.3648	-27.0715
11303.6900	75.2512	-34.3447
11401.8400	74.1369	-41.0873
11500.8400	73.0164	-47.6320
11600.7000	71.8812	-53.6105
11701.4300	70.7668	-58.9721
11803.0400	69.6732	-64.2264
11905.5200	68.5857	-69.1702
12008.9000	67.5319	-73.8734
12113.1700	66.4954	-78.8022
12218.3500	65.4588	-83.8293
12324.4400	64.4223	-88.7887
12431.4500	63.3857	-93.6715
12539.3900	62.3492	-98.4754
12648.2700	61.3126	-103.2007
12758.1000	60.2761	-107.8484
12868.8800	59.2395	-112.4205
12980.6200	58.2030	-116.9187
13093.3300	57.1664	-121.3453
13207.0200	56.1299	-125.7022
13321.6900	55.0933	-129.9916
13437.3600	54.0568	-134.2153
13554.0400	53.0202	-138.3753
13671.7300	51.9837	-142.4734
13790.4400	50.9471	-146.5114
13910.1800	49.9106	-150.4909
14030.9700	48.8740	-154.4135
14152.8000	47.8375	-158.2807
14275.6800	46.8009	-162.0941
14399.6400	45.7644	-165.8549
14524.6700	44.7278	-169.5645
14650.7900	43.6913	-173.2242
14778.0000	42.6547	-176.8352
14906.3200	41.6182	179.6014
15035.7500	40.5816	176.0844
15166.3100	39.5451	172.6129
15297.9900	38.5085	169.1857
15430.8300	37.4720	165.8019
15564.8100	36.4354	162.4605
15699.9600	35.3989	159.1607
15836.2800	34.3623	155.9016
