Freq	Ohm	Deg
20.0000	3.3904	22.2599
20.1737	3.4070	22.2636
20.3488	3.4097	22.4212
20.5255	3.4178	22.5872
20.7037	3.4216	22.3678
20.8835	3.4112	22.3626
21.0648	3.4031	23.1640
21.2478	3.4112	23.9899
21.4322	3.4203	24.4523
21.6183	3.4298	25.2859
21.8061	3.4573	25.9728
21.9954	3.4819	25.7683
22.1864	3.4900	25.6391
22.3790	3.5005	25.9297
22.5733	3.5122	26.0939
22.7693	3.5198	26.3637
22.9670	3.5328	26.7415
23.1665	3.5466	26.8652
23.3676	3.5549	26.9748
23.5705	3.5634	27.2674
23.7752	3.5739	27.5747
23.9816	3.5847	27.8459
24.1899	3.5957	28.1119
24.3999	3.6065	28.3889
24.6118	3.6178	28.7069
24.8255	3.6306	29.0104
25.0410	3.6431	29.2789
25.2585	3.6555	29.5823
25.4778	3.6689	29.9233
25.6990	3.6838	30.2059
25.9221	3.6972	30.4596
26.1472	3.7106	30.8162
26.3743	3.7269	31.2011
26.6033	3.7445	31.4417
26.8343	3.7585	31.7141
27.0673	3.7754	32.0743
27.3023	3.7927	32.3498
27.5394	3.8088	32.6219
27.7785	3.8251	32.9575
28.0197	3.8429	33.2919
28.2630	3.8605	33.6090
28.5084	3.8784	33.9740
28.7559	3.8980	34.3627
29.0056	3.9189	34.7662
29.2575	3.9424	35.0707
29.5115	3.9625	35.3399
29.7677	3.9836	35.7089
30.0262	4.0059	36.0917
30.2869	4.0294	36.4736
30.5499	4.0538	36.8331
30.8152	4.0782	37.2011
31.0827	4.1038	37.5833
31.3526	4.1297	37.9956
31.6249	4.1580	38.4234
31.8995	4.1871	38.8798
32.1765	4.2202	39.2407
32.4558	4.2491	39.6301
32.7377	4.2834	40.1014
33.0219	4.3177	40.5363
33.3086	4.3553	41.0193
33.5979	4.3956	41.5196
33.8896	4.4413	41.7930
34.1839	4.4784	42.0924
34.4807	4.5231	42.5295
34.7801	4.5675	42.7390
35.0821	4.6075	42.9432
35.3867	4.6472	43.2245
35.6939	4.6864	43.4602
36.0039	4.7213	43.7638
36.3165	4.7572	44.3494
36.6318	4.8025	45.0641
36.9499	4.8547	45.7374
37.2707	4.9142	46.1526
37.5944	4.9661	46.5326
37.9208	5.0240	47.0957
38.2501	5.0851	47.6013
38.5822	5.1484	48.0866
38.9172	5.2139	48.5140
39.2551	5.2771	49.0791
39.5960	5.3503	49.7713
39.9398	5.4284	50.3941
40.2866	5.5113	51.1165
40.6364	5.6060	51.9942
40.9892	5.7190	52.4090
41.3451	5.8149	52.6069
41.7041	5.9161	53.1463
42.0662	6.0247	53.6823
42.4315	6.1376	54.2090
42.7999	6.2575	54.7426
43.1716	6.3818	55.3620
43.5464	6.5197	56.0302
43.9245	6.6664	56.6515
44.3059	6.8236	57.4517
44.6906	7.0071	58.3351
45.0787	7.2153	58.4805
45.4701	7.3925	58.4476
45.8649	7.5822	58.8412
46.2632	7.7765	59.5621
46.6649	8.0125	60.3011
47.0701	8.2556	60.8719
47.4788	8.5275	61.5791
47.8910	8.8244	62.4454
48.3069	9.1765	62.9638
48.7263	9.5246	63.4850
49.1494	9.9420	64.4118
49.5762	10.4229	64.4507
50.0066	10.8847	64.1342
50.4408	11.3805	64.5613
50.8788	11.9715	64.9146
51.3206	12.6063	65.0229
51.7662	13.3349	64.8266
52.2157	14.0900	64.6004
52.6691	14.9719	64.5677
53.1264	15.9517	64.6717
53.5877	17.1495	65.0669
54.0530	18.6077	65.4257
54.5223	20.4785	63.2800
54.9958	22.2172	59.8427
55.4733	24.2476	57.1669
55.9550	26.5309	53.5175
56.4408	29.0824	48.5912
56.9309	31.7795	42.3870
57.4252	34.6753	33.0895
57.9238	36.8024	20.3361
58.4268	37.8266	6.6560
58.9341	37.6741	-7.3760
59.4458	36.2141	-19.9833
59.9620	34.1500	-28.7477
60.4826	32.3333	-37.1763
61.0078	29.9144	-46.5128
61.5375	27.2541	-53.2546
62.0719	24.8202	-58.0496
62.6108	22.5621	-63.2764
63.1545	20.1613	-65.1025
63.7029	18.5484	-64.3584
64.2560	17.1584	-65.3498
64.8139	15.8999	-66.1331
65.3767	14.8032	-66.2898
65.9444	13.8695	-66.7565
66.5170	12.9684	-67.0940
67.0945	12.1881	-66.4939
67.6771	11.5354	-65.9006
68.2647	10.9529	-65.8491
68.8575	10.3932	-66.1433
69.4554	9.8381	-65.4495
70.0585	9.4024	-64.1759
70.6668	9.0126	-63.4030
71.2804	8.6604	-62.6772
71.8993	8.3401	-61.9969
72.5236	8.0458	-61.4236
73.1533	7.7669	-60.8136
73.7885	7.5121	-60.0804
74.4292	7.2793	-59.3654
75.0755	7.0648	-58.8522
75.7274	6.8525	-58.6153
76.3849	6.6315	-57.7990
77.0481	6.4546	-56.6194
77.7172	6.2916	-55.7858
78.3920	6.1402	-54.9935
79.0726	5.9989	-54.2201
79.7592	5.8670	-53.5080
80.4518	5.7403	-52.8079
81.1503	5.6214	-52.0286
81.8550	5.5125	-51.2740
82.5657	5.4093	-50.6852
83.2826	5.3053	-50.2393
84.0058	5.1969	-49.4301
84.7352	5.1090	-48.4499
85.4709	5.0254	-47.6991
86.2131	4.9465	-46.9215
86.9617	4.8739	-46.1851
87.7168	4.8037	-45.5001
88.4784	4.7371	-44.7987
89.2467	4.6741	-44.0743
90.0216	4.6162	-43.4137
90.8032	4.5589	-42.8478
91.5917	4.5022	-42.3784
92.3870	4.4406	-41.6984
93.1892	4.3903	-40.8748
93.9983	4.3420	-40.1711
94.8145	4.2981	-39.5120
95.6378	4.2548	-39.0072
96.4682	4.2084	-38.5065
97.3058	4.1624	-37.8641
98.1507	4.1194	-37.1555
99.0030	4.0785	-36.3199
99.8626	4.0454	-35.3297
100.7297	4.0213	-34.4327
101.6044	4.0015	-33.8380
102.4866	3.9778	-33.3227
103.3765	3.9568	-32.8086
104.2741	3.9336	-32.3554
105.1795	3.9112	-32.0102
106.0928	3.8822	-31.5518
107.0140	3.8593	-30.9319
107.9432	3.8370	-30.4319
108.8804	3.8150	-29.9547
109.8259	3.7929	-29.4496
110.7795	3.7723	-28.9270
111.7414	3.7524	-28.4174
112.7116	3.7335	-27.8927
113.6903	3.7159	-27.3816
114.6775	3.6988	-26.8531
115.6732	3.6840	-26.3442
116.6776	3.6691	-25.8754
117.6907	3.6553	-25.4242
118.7126	3.6411	-25.0560
119.7434	3.6244	-24.6476
120.7831	3.6088	-24.0437
121.8319	3.5990	-23.4987
122.8897	3.5876	-23.0326
123.9568	3.5791	-22.5307
125.0331	3.5714	-22.1733
126.1188	3.5610	-21.8718
127.2138	3.5496	-21.4931
128.3184	3.5391	-21.1172
129.4326	3.5273	-20.7161
130.5565	3.5171	-20.2143
131.6901	3.5097	-19.7964
132.8336	3.5002	-19.4064
133.9870	3.4925	-18.9408
135.1504	3.4860	-18.4838
136.3239	3.4812	-18.0961
137.5076	3.4749	-17.7311
138.7015	3.4696	-17.3175
139.9059	3.4653	-16.9165
141.1207	3.4617	-16.5800
142.3460	3.4567	-16.2240
143.5820	3.4535	-15.8330
144.8287	3.4507	-15.4872
146.0863	3.4483	-15.1643
147.3548	3.4459	-14.9265
148.6342	3.4407	-14.6837
149.9248	3.4358	-14.2909
151.2266	3.4344	-13.9387
152.5397	3.4317	-13.6854
153.8642	3.4285	-13.3330
155.2002	3.4286	-12.9978
156.5478	3.4283	-12.8500
157.9071	3.4242	-12.7318
159.2782	3.4192	-12.5324
160.6612	3.4138	-12.2956
162.0563	3.4088	-12.0869
163.4634	3.4023	-11.8930
164.8827	3.3953	-11.6437
166.3144	3.3888	-11.3945
167.7585	3.3814	-11.1498
169.2152	3.3740	-10.8849
170.6844	3.3662	-10.5740
172.1665	3.3597	-10.2316
173.6614	3.3535	-9.8979
175.1693	3.3479	-9.5601
176.6903	3.3424	-9.1586
178.2245	3.3398	-8.7697
179.7720	3.3367	-8.4309
181.3330	3.3345	-8.0536
182.9075	3.3334	-7.6957
184.4957	3.3326	-7.3700
186.0976	3.3318	-7.0001
187.7135	3.3332	-6.6446
189.3434	3.3344	-6.3574
190.9875	3.3353	-6.0657
192.6458	3.3366	-5.7539
194.3186	3.3388	-5.5050
196.0059	3.3390	-5.2261
197.7078	3.3415	-4.8196
199.4245	3.3477	-4.6188
201.1561	3.3484	-4.5213
202.9027	3.3492	-4.2856
204.6645	3.3507	-4.0899
206.4416	3.3507	-3.9789
208.2341	3.3476	-3.7077
210.0422	3.3494	-3.3857
211.8660	3.3499	-3.1809
213.7056	3.3505	-2.9539
215.5612	3.3511	-2.7469
217.4330	3.3511	-2.5387
219.3209	3.3511	-2.3262
221.2253	3.3507	-2.1259
223.1462	3.3498	-1.9128
225.0837	3.3487	-1.6545
227.0381	3.3487	-1.3741
229.0095	3.3492	-1.1015
230.9980	3.3505	-0.8442
233.0038	3.3517	-0.6011
235.0269	3.3533	-0.3875
237.0677	3.3538	-0.1848
239.1261	3.3544	0.0463
241.2024	3.3550	0.2978
243.2968	3.3563	0.5469
245.4093	3.3577	0.7479
247.5402	3.3577	0.9688
249.6896	3.3585	1.2553
251.8577	3.3604	1.5298
254.0445	3.3624	1.7779
256.2504	3.3646	2.0564
258.4754	3.3682	2.3100
260.7197	3.3712	2.4941
262.9836	3.3729	2.7112
265.2671	3.3753	2.9761
267.5704	3.3782	3.2860
269.8937	3.3836	3.5849
272.2372	3.3894	3.7906
274.6010	3.3945	3.9476
276.9853	3.3986	4.0923
279.3904	3.4020	4.1975
281.8163	3.4030	4.3176
284.2633	3.4035	4.5317
286.7316	3.4050	4.7761
289.2213	3.4069	5.0336
291.7326	3.4099	5.2801
294.2657	3.4126	5.5819
296.8208	3.4188	5.8016
299.3981	3.4216	5.9861
301.9978	3.4268	6.2121
304.6200	3.4305	6.3943
307.2650	3.4352	6.5304
309.9330	3.4368	6.5402
312.6241	3.4336	6.7658
315.3386	3.4353	7.1768
318.0767	3.4389	7.5222
320.8386	3.4441	7.8057
323.6244	3.4481	8.2598
326.4344	3.4610	8.6293
329.2688	3.4696	9.0463
332.1279	3.4910	9.0821
335.0117	3.4937	8.8450
337.9206	3.4984	9.0995
340.8548	3.5050	9.5890
343.8144	3.5235	9.5902
346.7998	3.5232	9.8929
349.8110	3.5497	10.0582
352.8484	3.5539	9.5020
355.9122	3.5557	9.1164
359.0026	3.5431	8.9568
362.1198	3.5356	9.0107
365.2641	3.5189	9.5496
368.4357	3.5246	10.3416
371.6348	3.5304	10.6079
374.8617	3.5359	10.8357
378.1166	3.5414	11.0470
381.3998	3.5464	11.2595
384.7115	3.5517	11.5136
388.0519	3.5585	11.7439
391.4214	3.5648	11.9537
394.8201	3.5721	12.2014
398.2483	3.5810	12.3282
401.7063	3.5862	12.3719
405.1943	3.5897	12.5327
408.7126	3.5945	12.7371
412.2614	3.5992	12.8986
415.8411	3.6028	13.1426
419.4518	3.6097	13.3980
423.0939	3.6160	13.5786
426.7676	3.6223	13.7684
430.4732	3.6287	13.9513
434.2110	3.6349	14.1253
437.9813	3.6409	14.3182
441.7842	3.6475	14.5126
445.6202	3.6539	14.7009
449.4896	3.6607	14.8972
453.3925	3.6676	15.0876
457.3293	3.6747	15.2797
461.3002	3.6822	15.4467
465.3057	3.6890	15.5936
469.3459	3.6952	15.7672
473.4213	3.7017	15.9714
477.5320	3.7090	16.1691
481.6784	3.7163	16.3532
485.8608	3.7237	16.5394
490.0795	3.7312	16.7223
494.3349	3.7388	16.9136
498.6272	3.7470	17.0935
502.9567	3.7547	17.2703
507.3239	3.7630	17.4396
511.7290	3.7706	17.5995
516.1723	3.7784	17.7599
520.6542	3.7856	17.9261
525.1751	3.7930	18.1167
529.7351	3.8009	18.2988
534.3348	3.8085	18.4863
538.9744	3.8166	18.6771
543.6543	3.8246	18.8817
548.3749	3.8335	19.1130
553.1364	3.8434	19.3329
557.9393	3.8540	19.5053
562.7839	3.8634	19.6871
567.6705	3.8741	19.8977
572.5996	3.8851	20.0901
577.5714	3.8966	20.2952
582.5865	3.9093	20.4806
587.6451	3.9219	20.6365
592.7476	3.9350	20.7727
597.8944	3.9477	20.8851
603.0859	3.9602	20.9821
608.3225	3.9723	21.0536
613.6045	3.9838	21.0486
618.9325	3.9917	20.9867
624.3066	3.9966	20.9642
629.7275	3.9994	21.0033
635.1954	4.0009	21.1289
640.7108	4.0032	21.3361
646.2741	4.0068	21.6156
651.8857	4.0134	21.9086
657.5460	4.0214	22.1683
663.2554	4.0307	22.4258
669.0145	4.0414	22.6560
674.8235	4.0524	22.8282
680.6830	4.0624	22.9952
686.5933	4.0727	23.1913
692.5550	4.0836	23.3793
698.5685	4.0943	23.5791
704.6341	4.1062	23.7954
710.7524	4.1190	23.9525
716.9239	4.1304	24.0807
723.1489	4.1416	24.2453
729.4280	4.1532	24.4088
735.7616	4.1644	24.5672
742.1502	4.1759	24.7400
748.5943	4.1877	24.9095
755.0943	4.1996	25.0634
761.6508	4.2110	25.2381
768.2642	4.2235	25.4331
774.9350	4.2366	25.6145
781.6638	4.2503	25.7447
788.4509	4.2623	25.8635
795.2970	4.2744	26.0149
802.2026	4.2866	26.1618
809.1681	4.2985	26.3203
816.1941	4.3109	26.4896
823.2811	4.3235	26.6584
830.4296	4.3365	26.8200
837.6402	4.3495	26.9759
844.9134	4.3625	27.1576
852.2498	4.3767	27.3551
859.6499	4.3920	27.4817
867.1142	4.4050	27.6016
874.6433	4.4190	27.7782
882.2379	4.4338	27.9204
889.8983	4.4477	28.0463
897.6253	4.4617	28.2006
905.4193	4.4766	28.3372
913.2811	4.4907	28.4537
921.2111	4.5046	28.5793
929.2099	4.5185	28.7180
937.2783	4.5330	28.8484
945.4166	4.5474	28.9007
953.6257	4.5584	28.9408
961.9060	4.5684	29.0292
970.2582	4.5774	29.1187
978.6829	4.5844	29.2531
987.1808	4.5915	29.5386
995.7525	4.6037	29.8796
1004.3990	4.6180	30.1794
1013.1200	4.6348	30.4648
1021.9170	4.6532	30.7006
1030.7900	4.6720	30.8789
1039.7400	4.6901	31.0346
1048.7680	4.7074	31.2101
1057.8750	4.7253	31.4352
1067.0600	4.7456	31.6884
1076.3260	4.7684	31.8240
1085.6710	4.7871	31.9098
1095.0980	4.8063	32.0540
1104.6070	4.8251	32.1987
1114.1980	4.8440	32.3323
1123.8730	4.8616	32.5022
1133.6310	4.8814	32.7115
1143.4750	4.9016	32.9308
1153.4030	4.9245	33.1520
1163.4180	4.9481	33.3677
1173.5200	4.9745	33.5841
1183.7100	5.0028	33.6702
1193.9880	5.0273	33.6701
1204.3550	5.0495	33.7017
1214.8130	5.0704	33.7653
1225.3610	5.0902	33.8609
1236.0010	5.1098	34.0177
1246.7330	5.1312	34.2699
1257.5580	5.1568	34.5871
1268.4780	5.1883	34.8833
1279.4920	5.2235	35.1361
1290.6020	5.2635	35.3455
1301.8080	5.3076	35.3165
1313.1110	5.3448	35.1688
1324.5130	5.3818	35.0958
1336.0140	5.4200	34.9063
1347.6140	5.4539	34.4750
1359.3160	5.4765	33.9635
1371.1190	5.4928	33.2379
1383.0240	5.4850	32.3525
1395.0330	5.4580	31.8126
1407.1460	5.4237	31.8011
1419.3640	5.3961	32.1643
1431.6880	5.3759	32.8069
1444.1200	5.3720	33.6847
1456.6590	5.3861	34.5307
1469.3070	5.4142	35.1260
1482.0650	5.4464	35.3801
1494.9340	5.4748	35.5055
1507.9140	5.5029	35.5438
1521.0080	5.5240	35.5048
1534.2140	5.5404	35.6135
1547.5360	5.5590	35.9379
1560.9730	5.5861	36.2793
1574.5270	5.6167	36.4935
1588.1990	5.6485	36.6710
1601.9890	5.6837	36.7763
1615.8990	5.7183	36.7019
1629.9300	5.7473	36.4868
1644.0830	5.7684	36.2484
1658.3580	5.7837	35.9800
1672.7580	5.7892	35.7151
1687.2820	5.7870	35.6434
1701.9330	5.7850	35.8152
1716.7110	5.7883	36.0917
1731.6170	5.7958	36.3532
1746.6520	5.8052	36.6075
1761.8180	5.8174	36.8658
1777.1160	5.8308	37.1310
1792.5470	5.8468	37.4342
1808.1120	5.8664	37.7323
1823.8110	5.8884	37.9684
1839.6480	5.9099	38.1912
1855.6210	5.9333	38.4195
1871.7330	5.9571	38.6370
1887.9860	5.9822	38.8525
1904.3790	6.0080	39.0974
1920.9150	6.0380	39.2727
1937.5940	6.0642	39.3850
1954.4180	6.0907	39.5410
1971.3880	6.1170	39.7143
1988.5060	6.1450	39.8773
2005.7720	6.1722	40.0168
2023.1880	6.1996	40.1637
2040.7550	6.2268	40.3199
2058.4750	6.2550	40.4846
2076.3490	6.2838	40.6525
2094.3780	6.3134	40.8457
2112.5630	6.3462	40.9711
2130.9070	6.3757	41.0428
2149.4090	6.4045	41.1656
2168.0720	6.4340	41.2881
2186.8980	6.4630	41.4074
2205.8870	6.4924	41.5316
2225.0400	6.5217	41.6605
2244.3600	6.5515	41.7875
2263.8480	6.5811	41.9198
2283.5050	6.6116	42.0714
2303.3330	6.6434	42.2410
2323.3320	6.6780	42.3290
2343.5060	6.7079	42.3725
2363.8540	6.7372	42.4875
2384.3800	6.7678	42.6254
2405.0830	6.7993	42.7342
2425.9670	6.8293	42.8369
2447.0310	6.8599	42.9768
2468.2790	6.8916	43.1086
2489.7110	6.9230	43.2355
2511.3290	6.9550	43.4189
2533.1350	6.9913	43.6136
2555.1300	7.0297	43.6840
2577.3160	7.0625	43.7363
2599.6950	7.0965	43.8450
2622.2680	7.1297	43.9579
2645.0370	7.1643	44.1055
2668.0040	7.2007	44.2746
2691.1700	7.2408	44.3359
2714.5370	7.2743	44.3578
2738.1080	7.3083	44.4556
2761.8830	7.3421	44.5661
2785.8640	7.3771	44.6860
2810.0540	7.4125	44.8031
2834.4530	7.4487	44.9245
2859.0650	7.4857	45.0310
2883.8900	7.5221	45.1376
2908.9310	7.5593	45.2751
2934.1890	7.5986	45.4367
2959.6660	7.6414	45.5026
2985.3650	7.6783	45.5302
3011.2870	7.7156	45.6269
3037.4340	7.7534	45.7280
3063.8080	7.7915	45.8298
3090.4110	7.8300	45.9318
3117.2450	7.8688	46.0390
3144.3120	7.9082	46.1418
3171.6140	7.9475	46.2393
3199.1530	7.9868	46.3503
3226.9310	8.0270	46.5286
3254.9510	8.0736	46.6344
3283.2130	8.1146	46.6731
3311.7210	8.1559	46.7811
3340.4770	8.1980	46.9179
3369.4820	8.2432	47.0444
3398.7390	8.2883	47.1772
3428.2510	8.3373	47.2578
3458.0180	8.3817	47.2915
3488.0440	8.4258	47.3863
3518.3300	8.4712	47.5043
3548.8800	8.5182	47.6150
3579.6950	8.5659	47.6996
3610.7770	8.6122	47.8175
3642.1300	8.6625	47.9525
3673.7540	8.7129	48.0787
3705.6530	8.7661	48.2536
3737.8290	8.8252	48.4438
3770.2850	8.8898	48.4843
3803.0220	8.9459	48.4941
3836.0440	9.0059	48.5971
3869.3520	9.0679	48.6909
3902.9500	9.1339	48.7767
3936.8390	9.2030	48.8103
3971.0220	9.2723	48.8114
4005.5030	9.3442	48.7793
4040.2820	9.4163	48.6560
4075.3640	9.4847	48.4204
4110.7500	9.5447	48.1401
4146.4440	9.5998	47.7493
4182.4470	9.6357	47.2538
4218.7640	9.6538	46.8597
4255.3950	9.6604	46.7596
4292.3450	9.6767	46.9356
4329.6150	9.7075	47.1128
4367.2090	9.7451	47.1632
4405.1290	9.7828	47.1084
4443.3790	9.8176	46.9185
4481.9610	9.8385	46.6343
4520.8770	9.8448	46.4521
4560.1320	9.8459	46.4657
4599.7280	9.8496	46.6290
4639.6670	9.8591	46.8898
4679.9530	9.8771	47.2248
4720.5890	9.9058	47.5817
4761.5780	9.9439	47.8977
4802.9230	9.9882	48.1157
4844.6260	10.0312	48.3061
4886.6920	10.0784	48.5196
4929.1230	10.1283	48.7036
4971.9230	10.1800	48.8678
5015.0940	10.2332	49.0115
5058.6400	10.2868	49.1470
5102.5640	10.3422	49.2663
5146.8690	10.3971	49.3639
5191.5590	10.4521	49.4719
5236.6380	10.5089	49.6001
5282.1070	10.5697	49.6135
5327.9720	10.6190	49.5888
5374.2340	10.6682	49.6470
5420.8990	10.7160	49.7246
5467.9680	10.7649	49.8235
5515.4470	10.8144	49.9327
5563.3370	10.8653	50.0393
5611.6430	10.9155	50.1639
5660.3690	10.9688	50.3193
5709.5180	11.0248	50.4982
5759.0940	11.0866	50.7028
5809.1000	11.1558	50.7944
5859.5400	11.2176	50.8086
5910.4180	11.2780	50.8559
5961.7390	11.3363	50.9009
6013.5040	11.3924	50.9927
6065.7190	11.4521	51.1567
6118.3880	11.5194	51.2329
6171.5140	11.5780	51.2792
6225.1010	11.6402	51.4106
6279.1530	11.7053	51.5928
6333.6750	11.7820	51.6581
6388.6700	11.8465	51.6463
6444.1430	11.9130	51.7078
6500.0970	11.9788	51.7532
6556.5380	12.0446	51.7277
6613.4680	12.0985	51.8052
6670.8920	12.1665	52.0063
6728.8160	12.2409	52.0323
6787.2420	12.3038	52.0150
6846.1750	12.3673	52.0855
6905.6210	12.4325	52.1721
6965.5820	12.5001	52.2430
7026.0640	12.5667	52.3058
7087.0710	12.6347	52.3687
7148.6080	12.7018	52.4187
7210.6790	12.7678	52.4840
7273.2890	12.8347	52.5989
7336.4430	12.9078	52.7496
7400.1450	12.9879	52.7836
7464.4010	13.0568	52.7786
7529.2140	13.1275	52.8496
7594.5900	13.1990	52.9208
7660.5340	13.2715	53.0179
7727.0500	13.3485	53.1546
7794.1440	13.4343	53.1798
7861.8200	13.5080	53.1326
7930.0840	13.5796	53.1566
7998.9410	13.6512	53.2116
8068.3960	13.7246	53.2764
8138.4530	13.7987	53.3301
8209.1200	13.8724	53.3997
8280.3990	13.9490	53.4794
8352.2980	14.0266	53.5482
8424.8210	14.1052	53.6297
8497.9730	14.1869	53.7537
8571.7610	14.2781	53.7802
8646.1890	14.3570	53.7500
8721.2640	14.4368	53.7816
8796.9910	14.5155	53.8160
8873.3750	14.5950	53.8639
8950.4220	14.6753	53.8991
9028.1380	14.7540	53.9313
9106.5300	14.8323	53.9894
9185.6010	14.9128	54.0595
9265.3600	14.9943	54.1533
9345.8110	15.0818	54.2883
9426.9600	15.1786	54.3140
9508.8140	15.2628	54.2876
9591.3790	15.3479	54.3339
9674.6610	15.4342	54.3524
9758.6660	15.5149	54.4506
9843.4000	15.6112	54.5604
9928.8700	15.7042	54.5832
10015.0800	15.7971	54.6215
10102.0400	15.8912	54.6799
10189.7600	15.9905	54.6547
10278.2400	16.0759	54.6245
10367.4800	16.1660	54.6520
10457.5000	16.2530	54.6396
10548.3100	16.3351	54.7008
10639.9000	16.4272	54.8129
10732.2800	16.5231	54.9285
10825.4700	16.6306	54.9459
10919.4700	16.7241	54.9251
11014.2800	16.8232	54.9374
11109.9200	16.9161	54.9352
11206.3900	17.0115	54.9393
11303.6900	17.1017	54.9457
11401.8400	17.1942	54.9874
11500.8400	17.2877	55.0225
11600.7000	17.3807	55.0786
11701.4300	17.4784	55.1756
11803.0400	17.5837	55.2886
11905.5200	17.6985	55.2884
12008.9000	17.7992	55.2328
12113.1700	17.8995	55.2222
12218.3500	17.9958	55.2321
12324.4400	18.0950	55.2690
12431.4500	18.1952	55.2919
12539.3900	18.2944	55.3266
12648.2700	18.3967	55.3819
12758.1000	18.5022	55.4223
12868.8800	18.6070	55.4704
12980.6200	18.7170	55.5681
13093.3300	18.8394	55.5491
13207.0200	18.9419	55.4838
13321.6900	19.0476	55.5020
13437.3600	19.1527	55.5170
13554.0400	19.2591	55.5504
13671.7300	19.3686	55.5737
13790.4400	19.4769	55.5653
13910.1800	19.5804	55.5976
14030.9700	19.6914	55.6689
14152.8000	19.8061	55.7329
14275.6800	19.9264	55.8219
14399.6400	20.0587	55.8176
14524.6700	20.1770	55.7412
14650.7900	20.2926	55.7033
14778.0000	20.4051	55.6747
14906.3200	20.5167	55.6553
15035.7500	20.6270	55.6354
15166.3100	20.7360	55.6014
15297.9900	20.8392	55.5764
15430.8300	20.9411	55.6004
15564.8100	21.0466	55.6997
15699.9600	21.1679	55.8155
15836.2800	21.2976	55.8187
15973.7900	21.4163	55.7837
16112.4900	21.5364	55.7619
16252.3900	21.6503	55.7130
16393.5100	21.7580	55.7061
16535.8600	21.8691	55.7249
16679.4400	21.9787	55.7532
16824.2700	22.0920	55.8098
16970.3500	22.2093	55.8817
17117.7000	22.3335	55.9642
17266.3400	22.4646	56.0573
17416.2600	22.6078	56.0389
17567.4900	22.7303	55.9740
17720.0200	22.8544	55.9797
17873.8900	22.9771	56.0100
18029.0800	23.1071	56.0301
18185.6300	23.2327	56.0375
18343.5400	23.3621	56.0553
18502.8100	23.4901	56.0552
18663.4700	23.6166	56.0583
18825.5300	23.7418	56.1169
18988.9900	23.8805	56.2122
19153.8700	24.0300	56.1920
19320.1800	24.1622	56.1203
19487.9400	24.2928	56.0784
19657.1500	24.4152	56.0422
19827.8400	24.5201	56.0911
20000.0000	24.6566	56.1979